timestamp,emg1,emg2,emg3,emg4,emg5,emg6,emg7,emg8
51367723099,-3,0,-2,3,2,-2,-1,-4
51367723099,-1,-2,-2,-2,1,-1,-2,-2
51367724686,0,-2,-2,-10,-13,-5,-2,0
51367724686,-4,-2,0,8,6,2,-3,-3
51367738205,-1,0,-3,-4,-2,-1,0,-3
51367738205,0,-1,-2,-1,-1,-2,-3,0
51367739792,0,0,-3,-2,2,0,0,-2
51367739792,-4,-4,0,-4,-2,-2,0,-2
51367760703,0,0,1,1,0,-1,-2,0
51367760703,1,-1,-3,-6,-12,-2,-3,-3
51367762192,0,-1,-1,6,7,1,0,0
51367762192,-2,0,-1,-6,-9,-3,0,-1
51367783161,-2,-2,0,3,2,0,-2,-2
51367783161,0,-2,-2,-3,-1,0,0,0
51367784696,1,-1,2,-3,-1,-1,-1,1
51367784696,-1,-3,-1,1,1,0,-2,-1
51367798058,0,-2,0,-1,1,-1,1,-1
51367798058,-1,-1,-1,1,0,-1,-1,-1
51367799668,-2,-2,-1,3,3,-1,0,1
51367799668,-1,2,-4,-4,-7,-4,-2,-2
51367828243,-1,-1,-2,-1,-1,0,2,0
51367828243,-1,0,-1,-1,-3,1,-1,-2
51367829691,-1,0,-2,-2,1,-1,-1,-2
51367829691,-1,-1,1,9,6,2,-1,-1
51367850790,-1,0,-2,-7,-7,-1,1,0
51367850790,-1,0,-1,5,1,-1,0,-2
51367852285,-2,-2,-3,-9,-2,-1,-1,-1
51367852285,0,-3,0,9,3,-1,0,-1
51367857442,0,-2,-1,1,-2,-1,-2,-2
51367857442,-2,-1,0,0,1,0,-1,-2
51367864425,0,1,1,-1,-5,-1,-1,-1
51367864425,2,0,-3,-8,0,1,0,-1
51367880778,0,1,1,3,1,0,-1,0
51367880778,-2,0,-2,-7,-7,-1,-2,-2
51367882217,0,-1,-2,0,-1,-3,-1,-1
51367882217,1,-2,0,-1,0,-1,-1,-2
51367903072,-3,-3,1,0,-2,0,0,0
51367903072,-2,0,-1,-4,-2,0,0,2
51367904660,2,1,-1,-2,-3,-4,-1,-3
51367904660,-2,0,-1,-2,1,1,-1,0
51367925548,0,0,-2,1,-1,-4,-3,-1
51367925548,-2,-2,-2,-4,1,0,0,-1
51367927184,-2,-1,2,9,3,0,0,-1
51367927184,-1,1,-2,-1,-3,-3,-2,-1
51367940774,1,-1,-2,-2,0,1,-2,-1
51367940774,0,0,1,3,0,-1,-1,-2
51367942285,-2,-1,-3,-8,-1,2,1,1
51367942285,2,4,0,-5,-10,-2,0,-1
51367963104,1,0,-3,2,0,-1,-1,-3
51367963104,-1,-1,-3,-2,-2,-2,-2,-2
51367964688,0,-3,0,0,0,-2,-1,0
51367964688,-4,-1,-2,-5,1,0,2,-1
51367977567,5,2,0,-4,-3,-2,-1,2
51367977567,-2,-2,0,-4,-2,-2,0,0
51367984345,-1,0,-3,0,-3,-2,-2,-1
51367984345,-2,-4,0,-1,-1,0,-3,-4
51368001050,-2,1,0,-1,-2,-1,0,1
51368001050,-1,0,-1,-3,-2,-1,0,1
51368002635,0,1,-3,0,1,1,-1,-2
51368002635,0,1,-2,-4,-4,-2,-2,0
51368023235,-3,-3,1,1,3,0,0,-1
51368023235,1,0,-1,-1,-1,0,-1,-1
51368024701,-3,-2,-1,-6,-11,-2,-2,-3
51368024701,1,-3,-1,-1,1,-1,-1,1
51368037625,-3,-1,1,3,1,-1,-2,-1
51368037625,-3,-4,0,3,3,-1,-1,0
51368044448,0,0,-2,-4,4,1,0,0
51368044448,-2,-1,-2,-4,-10,-1,-1,0
51368060695,-2,0,4,7,0,-2,-1,-1
51368060695,-2,-1,0,0,2,0,-1,-2
51368062169,4,4,-4,1,-1,-4,-2,-1
51368062169,-1,0,1,-3,0,-1,0,1
51368083236,-2,0,-2,-12,-10,0,0,-1
51368083236,-2,1,0,2,1,-1,-1,1
51368084700,-3,-2,-2,-1,-3,1,0,-1
51368084700,0,-2,0,1,-1,-3,-1,0
51368105609,-1,-2,-2,1,2,0,-2,0
51368105609,1,-2,0,-4,1,0,0,-3
51368107182,0,1,1,7,-3,0,1,3
51368107182,-2,-2,-1,-3,0,-1,-1,-1
51368128215,-4,-1,1,0,2,1,0,-1
51368128215,-1,1,-1,-4,-2,1,0,0
51368129694,-2,-1,0,-1,1,-1,-1,-1
51368129694,3,-1,-2,-1,-2,1,-2,-1
51368143240,0,0,-3,-6,2,-2,-1,-2
51368143240,1,-2,0,1,-10,-2,-1,2
51368144756,-5,-5,1,4,2,1,-1,-2
51368144756,-1,-3,-3,1,3,-1,0,0
51368157628,0,-1,-1,-4,-1,-3,-2,-1
51368157628,-1,0,-1,1,0,-3,-2,-1
51368164379,2,-1,1,-3,-1,0,-2,0
51368164379,-2,-2,2,0,1,0,0,-1
51368180740,-4,-4,-1,-2,-2,0,0,-2
51368180740,0,-1,0,0,0,-2,-1,-2
51368182180,-1,-1,-1,-1,-3,-2,-1,-2
51368182180,-2,0,0,0,2,0,-1,-3
51368203275,2,1,-2,1,-2,-1,-2,1
51368203275,-1,-2,-2,2,2,0,-2,1
51368204729,-1,-3,-1,-4,-3,0,-1,-1
51368204729,-2,-2,-1,-3,-3,-2,0,-2
51368216952,0,-1,-2,3,3,-1,1,0
51368216952,-1,1,-3,-3,-4,-2,-1,-2
51368225688,1,0,-3,0,3,-2,-3,0
51368225688,-1,0,-2,-2,-5,-1,-1,-2
51368240725,1,0,-1,-6,-5,-2,0,-1
51368240725,1,-2,-1,2,4,2,0,-1
51368242209,-4,-1,0,-2,-1,-1,1,-1
51368242209,-3,-1,-1,-3,4,-1,-1,-1
51368263207,-2,-2,-1,1,-4,-3,-2,-1
51368263207,-2,1,-4,-11,-13,-4,-2,-1
51368264724,-2,1,1,-2,1,-2,-3,-3
51368264724,1,2,-3,2,-3,-2,-3,-6
51368276892,4,2,-2,1,3,2,5,3
51368276892,1,-4,0,-3,-1,-2,0,3
51368285715,0,-1,-2,2,-5,-2,-5,-4
51368285715,1,-1,0,1,3,0,1,2
51368300803,0,-2,0,-1,-1,0,0,2
51368300803,-2,-1,-3,-6,-2,-1,-3,-3
51368302212,-2,-2,-1,-4,-1,0,1,-3
51368302212,0,-3,1,2,2,-1,2,5
51368330589,-2,0,-1,-2,-6,-1,-6,-4
51368330589,-2,-2,0,4,6,0,-2,-4
51368332155,-1,1,-3,-5,-6,-4,4,2
51368332155,-3,-3,-2,-1,-1,2,-1,2
51368336820,-1,2,-2,-1,-1,-1,-5,-4
51368336820,0,1,0,1,2,-2,0,0
51368353233,0,-2,0,2,2,2,1,2
51368353233,0,0,-4,-2,1,0,-4,-2
51368360763,4,-4,-8,-12,-12,-5,-1,-1
51368360763,-2,-1,2,13,7,-1,1,2
51368362227,-2,-3,-2,-7,-2,-1,-3,-2
51368362227,-1,-1,-1,0,0,-2,-2,-2
51368383701,-2,-2,2,2,5,-1,1,1
51368383701,-3,1,-4,-7,-10,-2,-1,0
51368385164,-1,-1,-2,-3,-2,-2,-3,-1
51368385164,-1,1,0,3,-3,0,-1,-1
51368405741,-2,-2,0,4,6,-3,0,-1
51368405741,2,-1,-3,-7,-9,-2,-2,-1
51368407221,-2,1,0,1,3,1,0,0
51368407221,2,-1,-2,-2,-2,-2,0,-1
51368428109,-4,-3,1,-1,-1,1,-1,-2
51368428109,2,1,-2,0,1,1,0,-1
51368429737,-1,-2,0,3,0,-1,-1,1
51368429737,-2,-2,-2,-5,-4,-1,0,-1
51368443128,-1,-2,-4,-1,-4,-1,-1,-3
51368443128,0,-1,-1,0,1,-1,1,-1
51368444656,-1,-1,0,5,1,1,-2,-1
51368444656,-1,-3,0,-2,-2,-2,0,-1
51368456717,-2,-1,2,1,-1,0,-2,0
51368456717,-1,-2,0,-2,0,-1,0,0
51368465722,-1,-2,-1,-4,-4,-3,-1,-1
51368465722,-3,1,0,-1,0,-2,0,0
51368480757,-1,-2,0,2,0,0,0,0
51368480757,-2,-1,0,1,-1,-2,-2,-2
51368482257,0,0,0,3,2,-1,0,-1
51368482257,-1,-1,1,-4,-5,0,1,-1
51368503217,0,-2,0,0,-1,-1,-3,-1
51368503217,-3,-2,2,4,4,1,-1,-1
51368504702,0,-1,-2,-6,-8,-3,-2,-1
51368504702,-2,-2,-3,2,0,-2,0,-2
51368516883,-3,-2,0,-2,0,-2,0,-1
51368516883,1,3,-1,-1,1,0,1,0
51368533226,-1,0,0,4,3,-1,0,-1
51368533226,1,0,-1,1,-6,-1,-2,-1
51368540729,-3,0,1,-2,-1,1,-1,-1
51368540729,-1,-1,0,3,2,-1,0,-1
51368542365,-5,-1,-1,-4,-4,1,-1,-2
51368542365,3,3,-2,-3,-2,-1,-2,0
51368563624,0,-4,-1,1,-1,-2,1,-1
51368563624,-1,-1,-4,-10,-4,-3,-3,-1
51368565190,0,1,0,3,-2,-1,-1,-1
51368565190,-1,1,-2,-1,2,0,-1,-1
51368576928,0,2,-1,4,3,-1,0,-1
51368576928,-1,-3,-2,-2,-3,-1,-2,-2
51368585770,0,0,-4,-3,-2,0,0,0
51368585770,-1,-1,1,-4,-6,-2,-1,1
51368608237,-1,1,-1,-2,2,-2,-2,-3
51368608237,-1,-1,2,2,1,0,0,-2
51368609694,-2,-3,-2,0,-2,0,0,0
51368609694,-2,0,-1,0,-1,0,0,0
51368623138,1,0,-4,-1,-2,-1,-1,0
51368623138,1,-2,0,1,0,0,0,-1
51368624888,4,-1,-2,-8,-10,-4,-1,-1
51368624888,-2,-1,-1,-2,4,0,-1,-3
51368645787,-2,-2,-2,-7,-8,-2,0,-1
51368645787,-1,-1,0,10,6,1,0,1
51368647226,-2,0,-1,-4,-3,-1,0,0
51368647226,-3,-1,-1,0,2,0,0,0
51368660756,0,-1,-3,-9,-3,0,0,-1
51368660756,0,1,-1,-1,-4,0,-1,-1
51368662251,0,-2,-2,-2,-3,-1,-3,-2
51368662251,-1,-3,-2,-2,-1,-1,-2,1
51368683085,-1,1,2,3,4,1,-1,0
51368683085,-2,-1,-2,-4,-1,-2,-2,0
51368684753,-1,-1,0,4,1,-3,-1,-3
51368684753,0,-1,-2,-2,-3,-2,-1,-1
51368705691,-2,-2,2,3,2,-2,0,2
51368705691,-1,1,-3,-6,-6,0,-1,-3
51368707396,6,2,-2,3,3,-2,0,1
51368707396,0,0,-2,1,2,-1,-2,-1
51368720721,-3,-2,1,0,-5,-1,-2,-2
51368720721,0,-1,-1,-5,-5,-5,1,-1
51368722248,-2,-2,0,0,2,1,0,1
51368722248,-1,-1,-1,-2,0,-1,-1,-2
51368743305,0,0,-1,-4,-9,-2,-1,-2
51368743305,-2,-6,-3,1,1,1,-2,-2
51368744690,-1,-2,-2,-10,2,0,-2,-1
51368744690,-1,-2,0,11,2,-1,-1,0
51368765592,-1,0,-3,-5,-8,-1,0,1
51368765592,0,-1,-2,-1,-1,1,1,1
51368767222,0,-2,1,4,1,-1,-1,-1
51368767222,0,-2,-2,-1,1,0,-1,-1
51368779987,0,1,-1,2,4,1,1,-1
51368779987,-1,0,-1,-5,-4,-3,-3,-3
51368786789,-1,0,-2,2,2,1,1,1
51368786789,-1,-1,0,-3,-3,-1,-1,1
51368810595,0,-1,-1,-2,-1,-1,-3,-2
51368810595,-1,-2,-1,6,1,-2,-2,-2
51368812235,-3,0,-1,-3,-4,0,-1,-1
51368812235,-1,-1,-3,-3,-4,-1,-3,-1
51368826481,1,-1,-3,-3,0,-1,-2,0
51368826481,1,-1,0,-4,-2,-1,0,0
51368827921,-2,0,0,1,-3,-3,-1,-1
51368827921,-1,-2,-2,0,2,0,-1,-1
51368840190,1,0,-1,2,0,0,-1,-1
51368840190,-2,0,-1,-9,-4,-2,1,-1
51368846812,-2,-1,-1,3,-1,0,-1,-1
51368846812,-1,-1,0,0,-2,-1,-1,-3
51368863331,0,0,1,3,3,0,-1,0
51368863331,-1,-1,0,0,-1,-1,-2,0
51368864680,-1,0,-2,-4,-1,0,1,-1
51368864680,1,-1,0,3,4,-3,0,0
51368885756,-1,0,-4,0,-1,-2,-2,-2
51368885756,0,2,-5,-1,-6,-2,-2,-2
51368887206,-3,-3,-3,-7,-4,-1,-2,0
51368887206,-1,-4,-2,0,0,1,-1,-1
51368908259,-1,0,0,-1,-2,-4,-1,-1
51368908259,1,0,0,3,2,0,-1,0
51368909709,0,-2,-2,0,2,0,0,0
51368909709,-4,1,2,0,-3,1,-1,-1
51368923215,-2,-4,-4,-6,-2,-2,-1,0
51368923215,-2,-4,1,8,1,2,-1,0
51368924868,-6,-7,-6,-5,1,-3,-1,-1
51368924868,3,5,-8,-8,-4,-1,-1,-1
51368945670,1,5,8,2,0,-1,0,-1
51368945670,-1,-1,-4,-3,1,-1,0,0
51368947261,0,-4,-6,-7,-2,-1,-2,0
51368947261,-2,-4,2,4,-1,-1,-2,-1
51368959395,-1,-4,-2,-6,-7,1,0,-2
51368959395,-2,-1,4,3,1,-2,-2,-1
51368968264,0,0,-3,2,-3,-3,-3,-3
51368968264,-3,-3,-3,-9,-1,-2,0,0
51368983200,-1,-6,1,12,2,-3,0,0
51368983200,3,6,-2,-4,0,-1,1,-1
51368984676,1,3,4,-4,-1,-1,0,0
51368984676,2,-2,1,12,2,-1,0,0
51369013299,-1,-2,-2,1,4,3,-2,-2
51369013299,-3,-8,-9,-14,-9,-2,-1,-2
51369014736,1,1,1,2,1,0,-1,-1
51369014736,-1,-1,4,0,-3,-3,0,-3
51369019440,-2,2,3,1,3,-2,-2,0
51369019440,-2,1,3,7,0,-2,-1,0
51369035773,2,2,-4,-3,-2,1,0,-1
51369035773,-3,-4,1,-1,-3,-3,-1,-1
51369043254,-1,0,-2,-1,0,-1,-1,-1
51369043254,0,-1,-3,-3,2,0,1,0
51369044705,-1,-1,1,3,2,0,-2,-3
51369044705,0,-2,-8,-4,2,0,-1,-1
51369065694,-2,-1,1,-1,2,0,-1,0
51369065694,-1,0,-1,-11,-11,1,-2,-1
51369067228,-1,-3,-1,8,7,3,0,-3
51369067228,-2,2,-2,-10,-9,-3,-1,0
51369088386,0,-2,-3,1,-1,-2,-1,0
51369088386,-3,-6,2,1,2,-1,-1,-2
51369089696,2,6,0,-5,-4,-2,1,0
51369089696,-1,0,0,0,5,0,-2,-1
51369110660,-2,-1,-4,-3,-3,-2,-2,-1
51369110660,-1,-1,-1,4,5,0,-1,-1
51369112253,-2,-2,1,6,3,0,0,-1
51369112253,0,0,-2,-10,-14,-4,-1,-1
51369125826,1,0,-5,-7,-5,-2,-1,-1
51369125826,1,-2,0,3,-2,-2,-1,-1
51369127272,0,-2,0,-1,5,-2,-2,-1
51369127272,-1,0,-1,0,4,1,-3,-2
51369139375,2,1,-2,0,-4,-4,0,-2
51369139375,0,3,2,3,-1,-1,-1,-1
51369148366,-3,-4,-4,-11,-7,-1,-3,0
51369148366,0,1,2,7,1,1,2,-3
51369163295,-3,-3,0,-1,0,-2,-1,-1
51369163295,-2,-1,-5,-2,1,-1,-1,-2
51369164682,0,-2,0,-1,-4,-1,0,0
51369164682,-1,-2,-3,-3,-1,0,0,0
51369185775,-1,0,-1,0,1,1,-1,-2
51369185775,-1,0,2,4,-1,-1,-1,-2
51369187245,-3,-1,-1,-6,-2,-3,-1,-1
51369187245,0,-4,-3,-5,-4,-1,-2,0
51369199464,1,0,0,1,0,1,-1,0
51369199464,2,-3,0,-6,-9,-5,-1,-1
51369215797,0,-1,1,8,2,1,-3,0
51369215797,-2,0,-1,-1,1,1,-2,-1
51369223239,0,-1,-1,-5,3,2,0,-1
51369223239,0,-1,1,8,3,0,0,0
51369224752,0,0,1,1,-3,-2,-1,-1
51369224752,-4,0,0,0,0,-2,-1,-2
51369245804,-2,-2,-3,-4,-3,-1,-1,-1
51369245804,-1,1,-3,-4,1,-1,-1,-2
51369247243,-1,1,0,0,-3,-1,-2,-2
51369247243,-2,-1,0,1,1,0,0,-1
51369259333,-1,0,-3,-4,-4,-4,0,0
51369259333,0,0,-2,-5,-3,-2,0,-2
51369268232,0,-1,-2,1,2,0,-1,-1
51369268232,-1,0,0,0,3,-1,1,1
51369283136,1,0,-1,-2,-3,-1,-1,-1
51369283136,-1,0,-1,0,2,-2,-2,-2
51369284756,-1,-2,1,-1,-3,-1,1,-1
51369284756,-2,1,-3,-3,-1,-2,-1,0
51369313371,-1,-2,0,3,2,0,-2,-3
51369313371,-2,-1,-2,1,2,1,-1,0
51369314683,-1,-1,-1,-4,3,-1,-2,-1
51369314683,0,-1,0,-1,-2,0,-3,-2
51369319537,-2,-2,-3,1,-3,-1,-2,-1
51369319537,-3,1,-3,-3,-1,0,-1,0
51369328288,0,-2,-1,0,-3,-2,0,-1
51369328288,1,-1,-1,-1,1,-1,1,0
51369343295,-1,1,0,-3,-4,-1,-2,1
51369343295,-1,-2,0,1,4,0,-2,-1
51369344719,-2,0,0,0,1,-1,-1,1
51369344719,-1,0,0,-1,-4,-2,-2,-1
51369364991,-3,-1,1,8,3,-1,0,-2
51369364991,-2,-1,-1,0,-2,-1,-2,-1
51369365639,1,-1,0,-2,-2,-2,-2,0
51369365639,-1,-2,0,-1,-3,1,-1,1
51369387676,1,2,-3,-6,-4,-3,-2,0
51369387676,1,-1,1,-1,1,0,0,-2
51369388350,-2,-1,0,0,-3,-1,1,-1
51369388350,0,-1,-1,3,3,0,-2,-2
51369402611,-2,-3,-1,-8,-10,0,-1,-2
51369402611,-1,-1,-2,-2,-2,0,-1,-1
51369403232,-1,-2,-4,-2,-4,0,0,-1
51369403232,0,0,-1,1,1,-1,0,-2
51369425267,1,0,0,0,3,1,1,-1
51369425267,1,-3,0,-3,-3,-3,-1,-1
51369425657,-1,-1,1,-1,-3,-3,-1,-3
51369425657,-2,0,0,-1,1,-1,-1,-2
51369447578,-3,-2,-1,-4,-5,-2,1,1
51369447578,0,-2,-2,-5,-2,-1,1,2
51369448260,0,-1,-1,7,2,-1,-2,-1
51369448260,-1,-1,-1,-5,-5,-3,0,0
51369463974,0,-2,-2,0,0,0,-2,-1
51369463974,-2,0,0,-4,-2,-1,-1,-2
51369464746,-1,0,-1,-3,1,2,2,-2
51369464746,-1,-2,-1,0,-4,-1,0,-2
51369485489,-2,-1,0,4,4,-1,-1,-1
51369485489,-1,-3,-4,-5,-1,0,-1,-1
51369492592,-1,-2,0,-1,-5,-2,-1,0
51369492592,1,-1,2,9,3,0,-1,-2
51369507598,-2,0,1,3,0,0,-2,-2
51369507598,-2,0,0,2,0,1,0,0
51369508255,-1,0,-3,-5,-1,0,0,-1
51369508255,-1,-3,-1,-1,0,0,-2,-1
51369522540,-1,-1,-1,0,1,-3,-2,-1
51369522540,-1,-1,0,2,1,-1,0,0
51369523252,-1,-1,0,-2,-2,-1,-2,-2
51369523252,-2,1,-1,-2,-1,-3,0,0
51369545043,0,-2,0,1,4,0,0,1
51369545043,0,-2,-2,-9,-10,-3,-1,0
51369545674,0,0,-2,0,0,-1,-3,-2
51369545674,0,0,-1,3,4,1,0,-2
51369567471,1,0,-4,-1,-4,0,-1,0
51369567471,0,2,-1,0,-2,-1,-2,-4
51369568237,-1,-2,1,-2,-3,0,-1,-1
51369568237,-1,-2,-1,-1,0,0,1,-1
51369590623,-1,0,-3,-2,4,2,0,-1
51369590623,1,0,0,-1,-6,-3,-2,-1
51369591368,-1,0,0,-1,1,1,2,0
51369591368,-1,0,-2,2,1,1,-2,-1
51369604915,-1,1,0,-4,2,-1,-2,-1
51369604915,-1,0,0,0,2,0,0,-1
51369605727,-1,-4,0,1,0,-1,-1,2
51369605727,-2,-2,-2,-2,-4,-2,-1,-2
51369627616,1,-1,-2,-4,-4,-3,0,-1
51369627616,-1,-3,1,1,5,2,-1,-1
51369628210,-2,-1,1,8,4,0,-3,-2
51369628210,-1,1,-2,-5,-4,-1,-2,-1
51369643977,-1,-1,0,0,-1,-1,-1,0
51369643977,-1,-1,0,-1,-2,-2,-3,-3
51369644904,1,0,-2,-3,-3,-1,-1,-1
51369644904,0,-1,-1,-3,-1,-1,0,1
51369664924,0,1,-1,-2,-2,-1,-1,-1
51369664924,-1,-1,-2,2,0,-1,-2,-1
51369665680,-1,0,-1,0,2,0,-1,-1
51369665680,-2,-1,-1,-4,-6,-3,-2,-1
51369687441,0,-2,-1,-6,-5,-2,-1,0
51369687441,-1,-2,-1,4,3,-1,0,-1
51369688222,-1,1,-1,-3,0,-1,-1,-2
51369688222,0,0,0,0,-3,-3,-2,0
51369703983,-2,-1,0,-1,-1,2,-1,-2
51369703983,-1,1,-3,-1,1,-1,1,-1
51369704743,0,0,0,-4,-6,-3,-2,-1
51369704743,-1,0,1,4,1,0,-2,-2
51369724995,-1,-1,-1,-2,-3,-2,0,-1
51369724995,-1,-1,-1,5,4,1,-1,-2
51369725638,-1,-1,-3,-6,-7,-2,-3,-1
51369725638,-2,0,0,-1,1,1,-1,-1
51369747423,0,-2,0,0,1,-1,1,0
51369747423,1,0,-1,-4,-7,-2,-1,1
51369748216,-1,-1,-2,-1,2,-2,-1,-1
51369748216,0,-2,0,0,2,0,-1,0
51369761862,-1,-1,-3,-1,-2,-2,0,-3
51369761862,-2,-1,-1,-2,0,0,-3,-2
51369769999,0,-1,-1,-1,-2,-3,1,0
51369769999,0,-2,-1,-3,-1,-1,1,0
51369793099,-1,-2,0,-1,1,1,-2,-1
51369793099,-2,1,-1,-2,0,1,-1,-2
51369793938,0,0,0,3,3,0,-1,-2
51369793938,-1,-1,-2,-8,-7,0,0,-3
51369815609,-1,-3,0,4,0,-2,-3,-1
51369815609,-1,-1,-1,-7,-5,-2,1,2
51369816414,-1,-2,-1,-1,1,1,1,-1
51369816414,-3,-4,1,3,4,1,-2,-3
51369821811,0,2,-3,2,0,1,0,-3
51369821811,0,-1,-1,0,0,-1,-1,-2
51369829994,-1,-2,-1,-6,-7,-3,-1,0
51369829994,1,-1,-2,-1,0,-1,0,2
51369844980,-1,-1,1,1,4,0,-1,-1
51369844980,-2,-2,-1,2,0,-1,-2,-3
51369845688,-2,0,-2,-5,1,0,-1,-4
51369845688,0,0,-3,3,-3,-2,0,-1
51369867451,-1,0,-2,0,0,-2,-3,-2
51369867451,-2,-1,0,1,1,0,-1,-2
51369868225,-1,-3,-1,2,4,0,0,0
51369868225,1,0,-2,-7,-5,-2,-2,0
51369881780,-2,-3,0,0,-1,-1,0,0
51369881780,1,2,-1,2,0,-2,-1,-1
51369889943,-1,-2,1,-2,-3,0,-1,0
51369889943,-2,-1,-1,-1,0,-2,-1,-2
51369905183,0,0,-3,-4,-2,0,-2,-2
51369905183,-3,-3,-1,1,0,-1,1,0
51369905751,-1,1,-3,-1,-1,0,0,0
51369905751,-3,-1,1,1,0,-1,-3,-3
51369927423,-1,0,-1,-1,-4,-2,1,-1
51369927423,1,-1,0,0,-1,0,-2,1
51369928225,0,1,-1,1,0,-1,-1,-2
51369928225,0,0,-1,-4,-2,-1,-1,-2
51369943236,-1,-1,0,0,2,0,1,0
51369943236,0,-3,-2,-1,2,1,-1,-2
51369950006,-3,-3,0,-3,-5,-2,-1,0
51369950006,-1,1,-2,2,3,0,1,-3
51369965007,3,4,-4,-3,-5,-3,-2,1
51369965007,0,-1,0,0,0,-1,-1,0
51369965731,0,-1,-1,-5,-2,-2,1,-1
51369965731,-3,-2,0,3,3,0,1,0
51369987206,0,-1,-1,-9,-8,-3,-4,-3
51369987206,-2,0,-2,2,-1,1,-1,-1
51369994966,0,-2,-2,6,1,-2,-2,-2
51369994966,-1,-2,-1,-5,-1,-1,-1,-1
51370001758,-1,-1,0,4,3,1,1,-2
51370001758,-1,0,-2,-6,-4,-3,-1,-1
51370017653,1,-3,2,3,3,0,0,-1
51370017653,0,-1,-2,0,-1,-1,-2,-1
51370024955,-1,-2,-1,-4,-1,0,-1,-1
51370024955,-1,-1,0,0,1,-1,-2,-1
51370025699,-2,0,-1,-2,-5,-3,0,-3
51370025699,1,-1,0,-1,-2,-3,0,0
51370047393,1,-2,-3,-4,-3,-1,1,2
51370047393,-1,-1,1,8,6,0,-3,-1
51370048178,-2,-1,-1,-7,-9,-1,-2,-2
51370048178,-1,0,-2,-2,-1,-3,-1,1
51370070809,-4,-2,0,3,3,0,-1,-3
51370070809,-2,0,-2,-2,0,-1,0,0
51370071409,-2,-1,-2,-2,-1,0,-1,0
51370071409,3,-1,-1,-1,-3,0,0,0
51370093098,0,0,2,4,2,-2,-2,-1
51370093098,1,2,-1,-3,-5,-3,-1,0
51370093868,0,-1,-2,0,3,1,-1,0
51370093868,0,0,-3,-5,-4,-1,-2,0
51370107464,-2,-1,-1,0,-1,0,-1,-2
51370107464,-2,-2,-2,-3,-3,-1,1,-1
51370108326,1,-1,1,-2,4,-3,-1,-2
51370108326,-2,0,-2,3,-6,-3,-3,-3
51370123314,0,-1,-1,-2,-4,-1,-2,-2
51370123314,-1,-1,-1,2,0,0,1,-2
51370129988,-2,0,-3,-3,0,1,-2,-1
51370129988,-2,-2,2,0,1,0,0,1
51370144906,-3,-1,-1,0,1,-2,0,2
51370144906,-2,0,-3,-6,-4,-1,-1,0
51370145673,-2,-1,-1,4,2,1,-1,-1
51370145673,-1,-1,-1,-1,3,-2,0,0
51370167552,-1,-1,1,-2,-6,0,-2,-2
51370167552,-2,-1,1,-3,2,1,-1,0
51370168297,-2,2,-1,5,3,0,-1,-1
51370168297,-1,-2,-2,-1,-2,1,-1,-1
51370198160,-1,-1,-1,-3,-1,-2,-1,2
51370198160,0,-3,-1,-1,0,1,0,-2
51370198944,-1,-2,0,-2,-6,-2,-1,0
51370198944,-1,-1,-1,-4,-2,-2,-2,-2
51370204970,0,0,0,0,-1,-1,-1,-2
51370204970,-1,0,1,0,-2,-2,-1,0
51370205721,0,-2,-1,2,0,1,0,-1
51370205721,-3,0,-2,0,0,-1,-2,-1
51370227502,-3,-4,-1,0,1,-1,0,0
51370227502,0,-2,-2,-4,-4,-2,-2,-2
51370228279,-2,-1,-1,-1,0,-1,-2,-2
51370228279,1,1,0,-4,-4,-2,-1,1
51370241746,-1,-1,-1,-5,4,0,-2,-2
51370241746,-2,0,0,4,-7,0,-1,-2
51370249987,1,-1,-1,-2,-1,-3,-1,-1
51370249987,-1,-3,0,3,3,2,1,-1
51370273320,-2,-3,-1,1,1,1,-2,-1
51370273320,0,-1,-2,-1,2,0,-1,-2
51370274023,-2,-2,-4,-11,-7,0,2,0
51370274023,0,-1,0,5,0,-2,-1,-1
51370287879,-2,0,-3,-4,-4,-2,-1,-2
51370287879,-2,1,-2,-2,-1,-1,0,-2
51370294980,-1,1,0,1,-1,-1,-1,-1
51370294980,-1,-1,-2,-6,-1,-1,-1,0
51370310683,-2,-2,-1,2,0,1,1,1
51370310683,-2,-2,0,1,5,-1,1,1
51370311458,-1,0,0,-6,-12,-4,-4,-1
51370311458,0,1,-1,3,-1,-3,-2,-2
51370325087,0,5,-3,-1,-3,-2,-2,-2
51370325087,0,-3,-2,0,-2,-1,-1,-1
51370325853,1,-2,-2,3,6,2,-2,-2
51370325853,-2,0,-3,-5,-3,0,0,0
51370347449,0,0,0,-5,-4,-2,-1,0
51370347449,-1,0,-2,-1,-2,0,-2,0
51370348248,-1,0,-1,0,-1,-1,0,-2
51370348248,-4,-3,0,0,0,0,0,1
51370370152,-1,-2,-2,-2,0,-2,0,-3
51370370152,-2,0,2,2,1,-1,-1,-4
51370370750,-1,-2,3,5,2,0,-1,-2
51370370750,0,1,-2,-2,-2,0,-1,-1
51370384965,1,-1,-1,2,1,-1,-1,-3
51370384965,-2,0,-3,-3,-3,-1,-2,1
51370385730,0,0,-3,-1,-2,-2,-1,1
51370385730,-3,-1,0,1,4,2,-2,-1
51370407446,-3,-3,-2,-6,-1,1,-1,-1
51370407446,0,-1,-1,-3,-5,-3,1,-1
51370408418,-1,0,0,5,3,-2,-2,-2
51370408418,-3,-2,-1,-5,-3,0,0,-4
51370430017,0,-3,-1,4,1,1,1,-2
51370430017,-1,2,-3,-3,-1,-1,-1,-1
51370430731,-2,-2,1,0,1,1,0,0
51370430731,2,-1,0,-3,-2,-1,0,1
51370444982,-2,-2,0,1,-1,-2,-1,0
51370444982,-2,-1,0,-4,-2,-2,-3,-2
51370445695,-1,0,-2,-2,-1,0,0,-2
51370445695,-1,0,-2,2,1,0,-1,1
51370475679,-1,-1,-2,-1,-1,-2,-2,1
51370475679,1,0,0,-2,-1,1,0,-2
51370476414,-2,-2,-1,-4,-3,0,-1,0
51370476414,-1,-1,-1,0,0,0,-1,-2
51370498136,1,3,2,7,4,-1,-2,-1
51370498136,-3,-3,-1,-1,0,-1,0,-2
51370499070,-3,-2,0,-1,0,0,-2,-1
51370499070,2,-1,-4,-3,-4,-2,-3,-2
51370504951,-1,1,-2,-3,-3,-3,-1,1
51370504951,-2,-1,-2,2,1,0,2,-1
51370505721,-1,-1,-1,-2,-1,-1,1,0
51370505721,-2,-1,-1,1,0,-1,-1,-4
51370527564,-1,-1,0,-2,-1,-2,2,-2
51370527564,1,-1,-5,-8,-1,-2,-2,0
51370528324,0,-2,0,4,-2,-4,0,-1
51370528324,-3,0,2,1,0,0,1,0
51370549966,0,0,0,-1,-2,2,-3,-1
51370549966,-1,-1,1,-2,-1,0,-1,-2
51370550713,1,1,-3,-3,-3,0,-2,-1
51370550713,0,1,-1,0,1,-2,-1,-1
51370573224,-2,-4,-3,0,0,0,0,-2
51370573224,-2,-2,0,0,-1,-2,-2,-1
51370574029,-1,-3,-2,-4,-3,0,1,-1
51370574029,0,-1,0,4,3,0,-1,0
51370587419,0,0,-2,-3,-1,-2,-2,1
51370587419,0,0,0,5,0,1,-1,-1
51370588243,-1,-1,0,0,-1,-1,0,-1
51370588243,-3,0,-1,-3,-5,-2,-2,-3
51370610104,-3,0,0,-1,2,-2,-1,-1
51370610104,1,-1,0,-5,-6,-3,0,0
51370610816,-2,-1,-1,6,3,0,-1,-1
51370610816,1,-1,-4,-3,1,-1,-1,-3
51370626418,-1,-3,2,-4,-4,-1,-2,1
51370626418,-2,-1,-1,-2,0,-1,-1,0
51370627267,-1,0,1,-1,-2,-3,-1,-3
51370627267,-2,-1,-1,-1,-1,0,0,1
51370647472,0,0,1,3,0,-2,1,-2
51370647472,-2,-1,-1,2,-1,-2,-3,0
51370648290,0,1,-2,-5,1,1,1,-2
51370648290,0,-2,1,1,0,0,1,-1
51370678321,-1,-1,-3,-2,-2,0,0,-3
51370678321,0,0,-1,-2,-1,0,-1,-1
51370679036,-1,-1,1,4,3,2,-1,1
51370679036,-3,-3,-2,-5,-6,-3,-2,0
51370684970,0,0,-2,0,1,-1,-2,-3
51370684970,-1,0,-1,-2,-2,-3,-1,0
51370685742,-1,-2,-2,-3,0,1,-2,1
51370685742,-2,-1,1,0,-4,-2,-4,-1
51370707451,-1,-1,0,5,2,0,0,1
51370707451,-1,-2,-2,-4,-3,-1,0,-1
51370708218,1,-1,1,5,1,-3,-2,-3
51370708218,1,1,-2,-6,-2,0,-1,-2
51370730045,0,-1,0,4,1,-1,0,-1
51370730045,1,2,-4,2,1,1,-1,0
51370730760,-1,-1,-1,-8,-4,-2,-2,-1
51370730760,-1,0,-1,2,0,-1,0,0
51370753188,-3,1,0,-2,-6,0,0,0
51370753188,-1,-1,0,-3,0,1,-1,-2
51370753955,0,-2,-2,-2,-2,-2,-1,-2
51370753955,0,-2,0,0,2,-2,0,-1
51370775731,-2,-2,-4,-5,-3,1,-3,-2
51370775731,-3,-1,2,4,3,-1,0,-1
51370776469,-3,1,-2,-9,-8,-3,0,0
51370776469,1,-1,0,3,3,-1,-1,-1
51370790019,0,1,-2,-3,-3,-1,-1,-1
51370790019,1,-2,0,-1,-4,0,0,0
51370790756,0,-2,-2,-1,3,0,0,0
51370790756,0,-2,-2,-6,-2,-1,-2,-2
51370804994,1,-1,-1,-1,-1,-1,-1,0
51370804994,0,-1,-2,-5,0,-2,-1,0
51370805750,-3,-1,-2,4,-3,-1,-2,-1
51370805750,-1,-1,0,2,2,0,-1,-4
51370827486,-2,0,-1,-5,-4,-3,0,-1
51370827486,-1,0,1,6,2,-1,-2,-1
51370828252,0,1,-4,-5,-3,-1,-1,-3
51370828252,-3,-1,-1,-3,-3,-2,-1,-1
51370849993,1,-2,0,4,3,0,-1,0
51370849993,-1,0,-1,-3,-3,-2,-3,-1
51370850746,0,-1,0,1,-2,-2,-2,1
51370850746,-1,-1,0,2,0,1,0,-1
51370865042,0,1,-2,-4,-2,0,-2,-1
51370865042,-1,-1,-2,-1,-2,-1,-1,0
51370865762,0,-1,0,5,5,0,-1,0
51370865762,-1,-1,-1,-6,-8,-1,-2,-1
51370887447,-1,0,0,1,1,0,-2,0
51370887447,-2,-1,0,1,-2,1,-1,-1
51370888206,0,0,-2,2,-1,-1,-2,-1
51370888206,1,0,-2,-2,1,-1,-2,-2
51370910111,-2,-2,-1,0,-1,0,1,-1
51370910111,0,-1,-1,0,-1,1,-1,0
51370910825,-2,-1,1,-1,-1,-1,-2,-3
51370910825,-1,-1,-1,-4,-4,-2,1,-1
51370925178,0,-1,-1,0,1,0,-1,-2
51370925178,0,-2,-3,-9,-2,-3,0,-1
51370925714,-1,0,0,6,1,0,-2,-2
51370925714,0,0,-1,0,0,0,0,0
51370955620,-1,-4,1,-2,-3,-2,-2,-1
51370955620,-3,-1,1,0,0,-1,1,-2
51370956405,1,0,-1,-5,-2,-3,0,0
51370956405,-2,-2,1,-2,-2,0,-3,2
51370978330,-1,-2,-3,-3,2,0,-1,-2
51370978330,-1,-1,0,2,-5,-4,-1,-1
51370979015,-1,-1,-2,-3,-3,-2,0,-2
51370979015,-1,-1,1,5,2,0,-1,-1
51370985221,-1,1,-1,-1,-2,-2,0,0
51370985221,0,-2,-2,-7,-5,-2,-1,-1
51370992557,0,-2,-1,0,0,1,-1,-1
51370992557,-1,-1,-2,1,-1,-1,-1,-2
51371007412,1,0,-1,-2,-4,-3,-2,-1
51371007412,0,0,-2,0,3,0,-1,-1
51371008208,-1,-2,2,0,0,-3,-2,0
51371008208,-1,1,-1,-2,-2,-1,-2,0
51371030011,-1,-1,-1,1,1,-1,-1,-1
51371030011,-2,-4,1,3,0,0,-1,-2
51371030749,1,1,-3,-4,-3,-3,0,-2
51371030749,-1,-1,-2,3,-2,-2,-2,0
51371053120,1,1,-2,-8,-7,-1,0,-1
51371053120,-1,0,2,7,4,-1,-4,-2
51371053939,-1,-1,-1,-4,-1,0,-2,1
51371053939,0,-2,-1,0,-1,-1,0,-2
51371067580,-2,1,-2,1,2,-1,-3,-2
51371067580,-2,0,-2,-2,1,0,0,-1
51371068372,-2,-3,0,1,2,1,2,0
51371068372,1,-1,-3,-2,-4,-3,0,-2
51371089986,-1,0,0,-2,-1,-3,0,-2
51371089986,-1,-1,-1,0,-1,-2,-2,0
51371090764,-1,-1,-1,2,2,0,-1,-1
51371090764,-1,0,-1,-2,-2,0,-1,-1
51371105844,-1,-1,0,1,1,-1,1,-1
51371105844,1,0,-1,-4,-3,-3,0,0
51371112487,-3,-3,-4,-6,-2,1,-1,-2
51371112487,0,0,-1,1,-3,-1,0,0
51371127478,-1,-2,-1,5,1,-2,-2,0
51371127478,-3,-3,-2,-1,0,1,-1,-2
51371128277,-2,-3,1,-1,1,-2,0,-1
51371128277,-1,-1,0,-2,6,0,0,0
51371150040,1,0,-3,-8,-10,-3,-2,-1
51371150040,-1,0,0,1,-1,-1,0,-2
51371150730,-2,-2,-2,-1,-2,-1,0,1
51371150730,-3,-1,0,0,-1,-1,0,0
51371165796,-2,-1,1,0,1,-1,-2,-2
51371165796,0,-1,0,-2,-3,0,-2,-2
51371179994,0,0,0,-1,-1,-1,0,-1
51371179994,-2,-1,-2,2,3,-3,-1,-2
51371187474,-1,-2,0,-2,1,1,0,0
51371187474,1,-1,-2,3,0,-1,1,-2
51371188293,0,1,0,2,-1,0,0,-1
51371188293,0,-1,-1,-2,-5,-3,-2,-1
51371210100,0,-1,-3,-1,3,2,0,0
51371210100,0,0,0,5,0,0,-1,1
51371210806,0,0,1,-2,-4,-1,-2,-1
51371210806,-1,1,-2,-1,2,0,1,0
51371233187,-2,-1,1,-2,-4,-1,0,-1
51371233187,-1,-1,-2,-5,1,0,-1,0
51371234117,0,-2,-1,-1,-2,-2,-1,-1
51371234117,-1,-2,-2,-3,-8,-4,-1,-2
51371255657,-2,-3,-3,1,0,-1,-3,0
51371255657,-2,0,1,-2,-1,-2,0,0
51371256433,-3,-1,-1,-2,-4,-2,-2,-2
51371256433,0,0,-3,-3,1,-3,-2,-1
51371270424,0,-1,-1,1,0,0,2,-2
51371270424,-2,-2,-2,-2,0,0,-2,0
51371271260,1,-1,0,2,0,-2,-1,-1
51371271260,-2,-1,-1,-2,-2,0,-2,-1
51371287473,-1,2,0,1,-2,-2,-2,-1
51371287473,1,-1,0,-1,0,-1,-1,0
51371292532,-2,-1,-2,-5,-3,0,-1,-1
51371292532,0,-2,-1,-7,-1,0,-2,-2
51371307510,0,-1,-2,4,2,0,0,-1
51371307510,-1,-1,-3,-5,-4,-1,-2,-1
51371308244,1,-1,-2,0,0,1,-2,-1
51371308244,-1,-2,-1,1,3,1,-2,-1
51371330414,0,-1,-1,-7,-4,-1,0,0
51371330414,-2,-2,-3,1,1,-2,-1,-2
51371331192,-1,-1,1,1,-1,0,-1,-1
51371331192,-2,-1,1,2,1,-1,1,-2
51371353166,0,-2,-2,-2,-1,-1,-1,-1
51371353166,3,5,-6,-6,-6,-4,-3,-2
51371353938,0,-1,-1,-1,1,-1,1,-1
51371353938,-2,-1,0,-2,-2,-1,0,0
51371367441,-1,-1,-1,1,-2,-1,-2,-2
51371367441,-2,-2,3,8,6,1,0,0
51371368249,0,-3,-1,-2,-1,-3,0,1
51371368249,0,0,-3,-4,-6,-2,-3,-2
51371389985,0,-3,-1,-2,-1,0,0,-1
51371389985,-2,-2,-2,3,2,1,1,-1
51371390788,-2,-1,-2,-6,-4,-2,0,0
51371390788,-2,-1,0,-1,4,2,0,1
51371405794,1,0,-1,-1,-5,-5,-1,-2
51371405794,-2,-1,-1,-2,-2,-1,-1,-2
51371412493,-2,-1,0,3,2,0,-2,-3
51371412493,-2,-1,-2,-3,-4,-2,-1,-2
51371443174,-3,-1,-3,2,0,1,0,0
51371443174,-1,-3,1,1,-1,-2,-2,-1
51371443979,1,0,-4,-4,-2,-2,1,1
51371443979,1,0,-1,1,-3,-2,-2,-2
51371458195,-2,-1,0,-1,2,-1,-1,0
51371458195,-1,0,-1,-3,-4,-2,-1,-1
51371458944,-1,-1,-1,-2,0,1,-3,0
51371458944,-1,-2,-2,-2,-3,-1,-1,0
51371480711,0,0,-1,2,-1,0,0,0
51371480711,0,-3,-2,-5,-2,0,0,1
51371481524,-1,-1,0,0,-1,-1,-4,-4
51371481524,0,1,0,3,0,-2,-2,-4
51371487695,0,0,2,1,2,-1,3,2
51371487695,-1,-3,-2,2,-1,-1,2,1
51371488573,-1,1,-1,-3,-3,0,-3,-4
51371488573,-1,0,1,-3,0,-1,3,2
51371510020,-2,-2,0,1,-2,-1,0,1
51371510020,-1,0,-1,-2,1,0,-3,-2
51371510778,0,-1,1,4,1,-1,-1,-1
51371510778,0,-3,-2,-5,-2,1,1,0
51371533243,0,-1,0,-4,-3,-2,-2,-3
51371533243,-1,0,-1,-2,-1,-2,0,-3
51371534030,0,0,-1,0,-1,-2,2,0
51371534030,0,-1,-1,1,2,0,-1,2
51371547450,-3,-2,-2,-2,-1,-1,-4,-1
51371547450,3,3,-1,3,1,-1,1,-2
51371548229,-3,0,-3,-6,-6,0,0,1
51371548229,0,0,0,7,6,0,-2,-3
51371569991,-1,-1,-3,-1,0,-2,-1,-1
51371569991,0,-5,0,-9,-9,-2,0,0
51371570779,0,-1,0,-2,0,-1,-2,0
51371570779,-1,0,-2,-1,-2,0,-2,-2
51371592518,-2,1,-2,-2,0,-2,0,0
51371592518,-2,-2,1,2,3,0,-2,-1
51371593305,-1,-1,-2,-4,0,-1,-1,-1
51371593305,-2,-3,0,2,-5,-2,-1,-2
51371609057,0,-2,-1,2,0,-1,-2,-1
51371609057,-1,-1,-1,-1,-1,0,-2,-1
51371609801,1,0,0,0,0,-1,2,-1
51371609801,-1,-2,-3,-3,-1,-1,-1,-1
51371630004,-1,0,0,3,3,1,-1,-1
51371630004,-1,2,-2,-4,-6,-2,-3,-1
51371630762,-1,-1,-1,1,1,1,-1,0
51371630762,-1,-1,-1,-3,1,-3,0,-1
51371660693,-1,-1,1,-1,-5,-1,-2,-2
51371660693,0,2,-2,-1,3,1,0,-1
51371661460,0,-3,-1,-2,-5,-2,-1,-1
51371661460,0,0,-2,-2,-3,-2,-1,0
51371667457,1,-2,-3,-3,0,1,1,-2
51371667457,-1,0,1,3,5,-1,0,0
51371668273,-3,-3,-2,-3,-8,-4,-2,-1
51371668273,-1,-1,1,-3,-1,0,-1,-1
51371689964,0,-2,0,-4,1,-1,-2,-1
51371689964,-1,-2,1,3,-1,0,-1,0
51371690746,-1,0,-2,-1,0,-1,-2,-3
51371690746,-1,-2,1,3,-3,0,0,-2
51371712544,-1,-1,-1,1,2,2,-1,-3
51371712544,1,0,-2,-7,-3,-3,0,0
51371713290,0,0,0,2,1,1,0,-1
51371713290,-1,0,-1,-2,1,1,0,0
51371735849,-1,-1,0,0,-2,0,-1,-1
51371735849,-2,-3,-1,-1,-4,0,-2,-2
51371736472,0,-2,2,3,2,-1,-2,-1
51371736472,0,-1,0,-3,-2,-3,-2,0
51371749804,-1,-2,-1,-9,-9,-2,0,0
51371749804,-3,-4,-2,-1,-5,-1,0,-1
51371757554,0,-1,-2,1,0,-2,0,2
51371757554,-1,-1,-1,1,2,0,-1,0
51371772566,-1,-2,1,-1,2,-1,-1,0
51371772566,-2,-1,-1,-1,2,-1,-1,0
51371773378,0,1,-2,0,0,-2,-1,-1
51371773378,0,-3,-1,3,0,0,-2,-2
51371790345,-1,0,-1,-2,-2,-3,-1,0
51371790345,0,0,-2,-3,-1,1,1,-2
51371791167,-1,2,-1,-3,-1,-3,0,-1
51371791167,0,-1,-2,0,-2,-1,-2,-1
51371809964,-1,-2,-3,-4,0,0,-1,-2
51371809964,0,-1,1,5,1,-1,-2,0
51371810736,-2,-1,0,-3,0,0,-2,-1
51371810736,0,-1,0,2,-2,-2,-1,-1
51371832443,-1,-1,-1,-1,-3,-1,-1,-3
51371832443,-1,-1,-1,-2,-1,-1,-1,-1
51371833202,1,-1,-1,0,-2,-2,-2,1
51371833202,0,-2,-2,-3,-3,-1,-2,-2
51371847476,0,-3,-1,-2,1,0,0,1
51371847476,1,1,0,-1,-4,-3,0,0
51371848239,-1,-1,0,-1,-1,2,0,-1
51371848239,0,-1,-1,-1,1,-1,-1,-1
51371870019,-1,0,0,0,-1,-3,-2,-1
51371870019,-1,-1,-1,-5,-2,-1,-1,1
51371870791,-2,-1,-1,-4,0,0,1,-1
51371870791,0,0,0,6,4,-2,0,0
51371892506,1,0,0,1,2,0,-2,-2
51371892506,0,0,-2,-1,-1,0,-1,-2
51371893319,-1,-1,-1,-2,-2,-1,-1,-2
51371893319,-3,-1,-1,-5,-1,-1,-1,-1
51371907455,-2,-1,-3,1,-3,-1,-1,0
51371907455,-1,0,0,0,0,-2,-2,-1
51371908248,-2,-1,-1,-2,1,0,-1,-2
51371908248,-2,1,-2,0,-4,-1,1,-1
51371938178,-1,-2,-2,3,2,-1,-1,-2
51371938178,0,-1,0,1,1,-1,-2,-2
51371939032,-2,1,-2,-2,-2,-1,-1,-1
51371939032,-3,-4,1,-6,1,1,0,-1
51371952475,-3,0,0,-3,-6,0,-1,0
51371952475,-2,-2,-1,5,1,-2,1,-3
51371953255,0,-1,-2,-1,-1,0,0,-3
51371953255,-1,-1,0,0,0,-1,0,0
51371967519,0,0,-1,-5,-5,-2,-1,0
51371967519,-3,-2,-1,-4,0,0,-1,-2
51371968272,-1,-3,3,2,-2,-3,0,-1
51371968272,-1,0,-3,-2,1,1,-1,-1
51371990100,1,-1,0,0,-1,0,0,-1
51371990100,-1,-1,-1,0,0,1,0,0
51371990966,-2,-1,0,-3,-5,-2,-2,1
51371990966,-2,-2,-1,-1,-3,-1,-2,-2
51372012499,-1,0,-1,3,0,-1,-1,0
51372012499,2,-1,0,-3,-3,0,-2,-1
51372013258,1,1,-1,-2,-1,-1,-1,-1
51372013258,1,0,0,0,2,-1,0,0
51372027539,-2,-1,-3,-2,0,0,-1,-1
51372027539,0,-1,-2,-6,1,-1,-1,-2
51372028300,-1,0,-1,4,-2,-3,0,-1
51372028300,-1,0,-1,-2,-1,-1,0,-1
51372049994,0,-1,-1,0,-1,-2,-1,1
51372049994,-1,-3,1,3,1,-1,0,0
51372050755,1,1,-3,-6,-4,-2,-2,0
51372050755,0,0,-1,1,3,0,-2,0
51372072517,-1,0,0,3,2,-1,-2,-3
51372072517,-1,0,-1,-3,-2,-3,-1,-1
51372073367,-2,0,-1,7,2,0,0,0
51372073367,0,-2,-2,-4,-5,-2,-2,-3
51372089328,-2,0,-2,0,0,0,-1,0
51372089328,-3,-1,0,1,-1,1,-1,-2
51372095031,1,-2,-2,-2,0,-1,0,-1
51372095031,0,-1,-2,-5,-3,-2,-1,-1
51372109970,1,-2,0,-1,0,-2,0,-3
51372109970,-3,0,0,-2,0,-1,-1,1
51372110741,-1,-2,-3,-4,-1,0,-3,0
51372110741,-2,1,2,7,2,-1,1,-1
51372132712,-1,0,-1,-3,-3,-2,1,1
51372132712,0,-2,-2,1,-3,-1,0,-3
51372133319,0,-2,0,-1,0,0,-1,-2
51372133319,0,0,1,-3,-1,-2,-1,-1
51372146822,-2,1,-1,-1,2,-1,-1,0
51372146822,0,0,-3,3,3,-1,-1,0
51372162501,-4,-2,0,-5,-6,0,-1,0
51372162501,-1,-1,1,0,0,0,-2,-1
51372170252,-2,-1,1,-3,-3,-2,-2,-1
51372170252,1,-1,-1,-4,-3,-2,-1,0
51372170837,0,-1,-1,1,0,1,-1,-1
51372170837,-2,-1,-1,-2,-2,-1,0,-1
51372192546,3,-1,-2,-2,-3,0,-1,0
51372192546,-1,-3,-1,0,-3,-2,0,-1
51372193323,0,0,0,0,0,-2,-3,-3
51372193323,-2,-1,-2,-5,-3,-1,-2,0
51372215687,0,-1,-1,-3,1,-2,-2,1
51372215687,-2,-1,-2,-3,-4,-4,-1,-2
51372216470,0,0,1,8,8,0,-1,-1
51372216470,1,0,-2,-5,-7,-1,0,-1
51372230776,-2,0,-2,1,2,0,0,0
51372230776,1,1,0,-3,-4,-1,-1,1
51372231486,-1,-3,-2,2,1,0,-1,0
51372231486,-1,-3,0,0,-3,-2,-2,1
51372252484,-2,-3,1,-3,-1,0,-1,0
51372252484,-3,1,-1,-4,1,1,0,0
51372253271,0,1,-3,1,0,-2,0,-2
51372253271,-1,-2,-2,-3,-3,-1,-2,-3
51372275708,0,0,0,1,-2,-1,-1,-3
51372275708,0,0,-1,-1,-1,-1,-1,-2
51372276554,-3,-1,-1,-3,-3,0,0,1
51372276554,-2,-1,-1,4,2,0,-1,0
51372290542,0,-1,-1,-2,-3,-2,-1,-1
51372290542,-1,-1,-3,-1,0,0,-1,-1
51372292365,0,0,0,2,3,0,-1,-2
51372292365,0,0,-1,-5,-8,-3,-1,0
51372312530,1,0,-1,1,-1,-1,-1,0
51372312530,-1,0,1,2,2,0,-1,0
51372313290,0,-2,-1,-1,-4,0,-2,0
51372313290,-1,-1,-1,-2,3,1,-1,0
51372343416,0,-1,-2,1,-5,-2,-4,-1
51372343416,-2,1,-2,2,0,-4,0,-1
51372344027,1,0,-2,-8,-2,-2,0,1
51372344027,-1,0,2,2,0,-1,-1,-2
51372350028,-2,-1,0,-1,2,0,1,1
51372350028,-1,-1,0,1,0,1,0,-2
51372350800,-2,-1,0,0,-1,-2,-1,-1
51372350800,-3,-2,1,-5,-3,-1,0,-2
51372372596,0,3,-1,4,2,-4,-3,-2
51372372596,0,-2,-1,-7,-7,-1,-3,0
51372373355,0,-2,-1,-2,2,-1,0,-2
51372373355,0,-2,-1,1,1,0,0,-2
51372387043,-3,0,0,-1,-5,-1,-2,1
51372387043,-1,-3,0,-2,1,-2,0,-1
51372395095,0,0,-2,-1,-2,-1,-3,-2
51372395095,0,-1,-3,-3,-3,-1,1,1
51372418213,0,-1,0,0,1,0,1,-2
51372418213,0,1,-2,0,0,0,1,-2
51372418991,-1,-2,-1,-4,-4,-2,-1,-2
51372418991,-1,0,0,7,4,2,0,-1
51372440865,0,-1,-1,-4,-4,-1,-2,-1
51372440865,-3,-4,2,-5,1,0,-1,-1
51372441475,-3,-1,-1,3,-1,-1,0,-2
51372441475,1,0,-2,-2,0,-2,-2,-2
51372455677,-1,-1,-3,-4,-5,-2,-1,1
51372455677,1,-1,1,2,0,-2,-2,-1
51372456460,-1,-2,-1,-3,-1,-1,-2,1
51372456460,1,0,-1,0,0,-1,0,0
51372470005,-3,-1,-3,1,2,1,-1,0
51372470005,1,1,0,2,-1,-2,0,-1
51372470850,-2,1,-1,0,1,0,-1,1
51372470850,-2,0,-1,-6,-5,-2,-1,0
51372493338,0,-2,0,-1,0,-1,0,-1
51372493338,-2,-1,0,-1,-1,0,-3,0
51372495045,-1,-1,0,0,-1,-2,-1,-3
51372495045,-1,-2,0,2,3,0,0,-1
51372515761,-1,-2,0,-1,1,1,1,-1
51372515761,1,-1,-4,-6,-5,-2,-2,-1
51372516456,1,0,2,8,4,0,-1,1
51372516456,0,0,0,-3,-2,-1,-1,-1
51372530216,-2,-1,1,1,-1,0,-1,-2
51372530216,-1,0,0,1,-1,0,0,-1
51372530829,0,2,-3,-6,-4,-1,-1,-1
51372530829,0,-1,-1,-4,-4,-2,-1,-1
51372552560,1,-1,-1,0,0,0,0,-3
51372552560,0,-2,-1,-1,0,1,-1,-1
51372553299,0,-1,0,-7,-3,-2,2,-1
51372553299,-2,-3,-1,2,3,0,-1,-1
51372574999,1,-1,-3,-1,-3,-3,-1,-2
51372574999,-1,0,-2,-6,-2,-2,0,-1
51372591538,-1,-2,1,7,4,2,-2,0
51372591538,0,-1,-3,-7,-13,-5,-2,-2
51372594998,-2,-1,0,-2,-3,0,0,0
51372594998,-2,-1,0,2,-1,-2,1,-2
51372597057,-2,-1,-1,-6,-1,-1,-1,1
51372597057,0,1,-1,6,3,1,0,-1
51372612487,-2,-1,-2,-2,0,1,-1,0
51372612487,0,0,-1,0,-5,0,0,-1
51372613293,-3,-2,-3,-2,-1,-1,-2,-4
51372613293,1,1,0,2,3,-2,-1,-2
51372643289,-1,-1,-1,-4,-6,0,-1,-1
51372643289,0,-3,-2,-1,1,1,-2,-1
51372644003,0,-1,-2,-1,-3,-2,-1,-2
51372644003,-1,-1,-2,2,0,1,0,-1
51372650015,-2,-2,-2,-2,-2,-4,-2,-5
51372650015,-1,-1,-1,1,1,-2,-1,-1
51372650819,0,-3,1,-5,-10,-6,-1,0
51372650819,-4,-2,1,-6,-5,-2,-2,-2
51372672491,0,-2,0,5,4,0,-2,0
51372672491,0,-2,-2,-2,-4,-2,-1,1
51372673256,0,0,0,4,5,2,1,-1
51372673256,1,0,-1,2,-1,0,0,1
51372695767,-2,-4,-1,-5,-4,-3,-1,0
51372695767,-1,1,1,5,2,-1,-2,-1
51372696590,-1,-1,-3,-3,-2,-2,-2,-1
51372696590,-2,1,-2,0,-2,-3,-1,-1
51372710619,-1,0,-2,-1,0,1,-1,0
51372710619,-1,-2,-2,0,-2,0,0,-2
51372711427,0,-2,0,0,0,2,1,0
51372711427,2,-2,0,-2,-1,1,-1,-1
51372732662,-1,-1,0,-3,0,-1,-1,-1
51372732662,-1,0,-1,2,-1,-3,-1,-1
51372733401,-1,-2,0,-1,1,0,0,0
51372733401,-1,1,0,1,3,-2,-1,1
51372755742,-1,1,-2,-8,-10,-2,-1,2
51372755742,-3,-1,-2,1,1,1,-1,0
51372756485,-1,0,-1,-3,-2,-2,-1,0
51372756485,-2,-2,-2,-2,-5,-2,-1,-3
51372770518,-1,-2,-1,4,7,0,0,0
51372770518,-2,-1,-2,-7,-6,-1,-1,0
51372771277,0,-2,-2,-6,0,3,-2,-3
51372771277,0,0,-1,6,0,-1,-1,-2
51372792703,0,0,-1,-1,2,-2,2,0
51372792703,-2,-2,-3,2,0,-1,-2,0
51372794378,-3,-1,0,1,0,0,-1,-1
51372794378,-1,-3,0,-3,-3,-3,-2,-1
51372815005,1,0,-2,-6,-6,-1,0,-1
51372815005,0,2,-3,2,1,0,-1,-1
51372815780,-1,1,-2,-2,-1,-1,-1,-2
51372815780,-3,-2,-2,-6,-3,0,1,1
51372829372,-2,-1,0,4,2,1,0,-2
51372829372,1,0,-1,-7,-6,-1,1,1
51372845205,0,-1,2,2,-2,-1,1,-1
51372845205,0,2,-3,0,3,2,0,-1
51372852557,0,0,-1,-2,-1,-3,-2,0
51372852557,-2,-1,0,-1,2,1,0,-2
51372853332,-1,-1,-2,0,0,-2,1,0
51372853332,-1,-2,-1,-2,-1,-1,-1,1
51372875153,-2,0,0,-2,0,0,0,-2
51372875153,-1,-2,0,-3,-5,-2,-2,-3
51372875857,-2,-1,-2,4,2,-2,-1,-3
51372875857,0,-1,-1,0,-1,-2,-1,-1
51372890089,-2,-1,0,3,2,0,-2,-2
51372890089,1,1,-1,-7,-3,-3,-2,1
51372890958,-1,0,-1,-2,-7,-2,-3,-1
51372890958,-1,-3,-1,-4,2,2,0,0
51372920748,-1,0,0,3,-2,-1,-2,-2
51372920748,1,0,-1,0,0,-1,-1,-2
51372921511,-1,2,-2,-1,1,1,0,0
51372921511,-1,0,-2,0,0,-2,0,0
51372935245,2,0,-2,-3,-4,-3,1,-1
51372935245,-4,-2,-2,-3,1,-2,0,-1
51372935906,0,-3,-1,-1,-1,-1,1,-1
51372935906,-2,-1,0,0,-1,1,0,-2
51372950002,0,0,-1,-1,1,0,0,0
51372950002,-1,-1,0,2,-1,-2,-1,1
51372950796,1,1,-1,-3,0,0,-1,0
51372950796,-2,0,-1,1,2,-2,-1,-1
51372972541,0,-1,-1,-5,-4,0,0,0
51372972541,1,-2,2,1,-1,-1,0,-1
51372973373,-1,-1,0,5,3,1,-2,0
51372973373,1,0,-1,-2,-7,-3,-1,-1
51372996012,-1,1,-1,4,2,-1,-3,-1
51372996012,-2,-2,-1,-5,-2,0,-1,-2
51372997703,-1,0,-3,-3,-3,-2,0,0
51372997703,0,1,-1,0,1,0,-2,-2
51373009992,0,-1,-2,-8,-3,0,0,1
51373009992,0,1,1,5,0,0,0,-1
51373010811,-1,-3,-1,-1,-3,-2,-2,-1
51373010811,-2,-1,-2,0,-1,0,-1,0
51373032627,-1,-1,-1,-5,-2,-1,-3,-3
51373032627,1,-1,-1,-2,-1,-2,-1,-1
51373033397,-1,1,0,-4,-3,-2,-2,0
51373033397,-1,-1,0,0,3,0,-1,0
51373055091,-2,-2,-2,0,4,-1,1,-2
51373055091,0,0,-1,-5,-10,-3,0,0
51373055861,-1,-3,0,4,0,-2,-1,-1
51373055861,-1,-1,0,-2,-3,0,0,-1
51373070878,-2,-2,0,6,1,-1,-1,0
51373070878,-1,-1,-3,-2,1,0,-1,-1
51373077532,-1,-2,-2,-6,-1,-2,1,0
51373077532,0,-3,0,2,-5,-2,-2,0
51373092744,0,-2,0,1,-1,-1,-3,0
51373092744,-2,0,-2,1,3,1,-1,-1
51373093426,-1,0,-2,-4,-4,-2,-1,-1
51373093426,0,-2,0,3,6,-1,-1,-2
51373115016,-1,-1,1,4,6,3,0,-1
51373115016,-1,-1,1,-1,-4,-1,0,-2
51373115801,-1,0,-2,-3,-2,0,0,0
51373115801,-1,-1,-3,-4,-2,-1,-1,-1
51373129366,-1,0,-1,2,-4,-2,-2,-1
51373129366,-1,-1,0,3,6,1,-1,-1
51373145232,0,-2,-1,-3,-3,-1,-1,-2
51373145232,-1,-1,-1,-1,0,0,-1,0
51373152753,-1,-3,-1,2,-3,0,-1,1
51373152753,-2,0,-1,0,0,-1,0,-1
51373153323,0,-2,1,0,-3,-1,-1,-1
51373153323,0,-1,0,-2,0,0,-1,-1
51373175501,0,0,-1,-4,-3,-2,1,-1
51373175501,0,-1,-2,0,-1,-1,-2,0
51373176275,0,-2,-1,4,6,0,0,-3
51373176275,-1,0,-4,-4,0,0,-1,-1
51373189356,-1,-1,-2,-8,-8,-2,0,-2
51373189356,1,0,-1,0,-2,-1,-1,1
51373198045,0,1,-1,0,2,-1,-1,-1
51373198045,-1,-2,-3,-1,1,-1,-1,0
51373212575,-1,1,0,2,0,0,0,-2
51373212575,-2,-2,-1,-3,0,-2,0,-2
51373213314,-3,-1,-2,-1,0,1,-2,-2
51373213314,-2,-1,-1,1,-2,0,-1,-2
51373235193,1,0,-3,-4,-1,-4,-3,-1
51373235193,0,-2,2,2,-1,0,-1,-1
51373235813,0,0,0,-2,-3,-2,-2,-1
51373235813,-1,-1,0,1,0,-1,0,-2
51373249511,-1,-2,-2,3,0,-1,0,0
51373249511,0,-2,-3,-4,-1,-1,0,-1
51373257653,-1,-1,0,-1,1,-1,1,2
51373257653,0,0,-1,-2,-1,0,-2,-1
51373272517,-1,-2,-2,-11,-1,0,0,-1
51373272517,-2,1,1,7,1,-2,1,0
51373273305,-1,-1,-1,0,-4,0,-3,-2
51373273305,-1,1,0,-1,-3,-2,-3,-1
51373295154,0,-1,0,1,0,0,0,-1
51373295154,-3,-1,-2,-5,-1,0,1,0
51373296086,1,0,-1,-4,-3,-1,-1,-2
51373296086,-2,-1,1,3,4,-1,1,0
51373309389,-1,-1,0,-2,-2,-4,-1,-2
51373309389,-1,-1,-1,-3,-7,-1,-2,0
51373317635,0,1,2,0,0,-1,-1,-2
51373317635,1,1,-1,-1,-3,-2,-1,-1
51373332679,-1,-1,-2,1,4,1,0,-1
51373332679,1,-1,-3,0,2,0,-2,-1
51373333343,0,-2,1,0,-1,0,-1,0
51373333343,0,-1,-2,-5,-2,-1,-1,-1
51373355198,-3,-1,1,3,-3,-2,-2,0
51373355198,-1,-2,0,-7,-4,-3,0,-1
51373355867,-2,-2,0,-1,1,-2,0,0
51373355867,-1,-1,0,3,-1,-2,1,-2
51373378214,-1,-1,-1,0,-4,0,-3,-2
51373378214,-2,0,-2,-3,0,0,-2,-2
51373378982,-2,0,-2,-2,-2,-1,-1,-2
51373378982,0,0,1,2,-2,-2,-1,-1
51373392548,0,0,-3,-1,1,-2,-1,0
51373392548,-2,0,-1,2,-2,-1,-2,-2
51373400744,1,0,-2,-1,-2,-2,-1,-1
51373400744,-3,-3,-1,-3,-2,1,-1,-2
51373415525,-1,0,0,-1,-2,-2,-1,0
51373415525,0,0,0,-3,-3,0,-1,0
51373422544,-3,0,-2,1,3,1,0,-1
51373422544,0,1,0,-2,-2,-3,-1,-1
51373438406,-3,-1,1,-3,-2,-1,0,-1
51373438406,0,-3,-2,1,0,0,3,-2
51373439088,-2,0,-2,-6,-5,-2,-1,-1
51373439088,-1,-1,0,2,0,-2,-1,-1
51373452761,-1,0,1,4,5,0,-1,-2
51373452761,-1,1,1,6,3,-2,-2,-1
51373453329,0,-2,-3,-3,-5,-3,-1,-1
51373453329,1,-1,-1,-3,-3,-2,-1,0
51373475033,-2,1,-1,-2,-3,-1,0,-1
51373475033,-1,-1,0,-3,-3,-2,-2,-2
51373475830,-1,-1,-3,0,-2,1,-1,0
51373475830,0,-2,0,3,3,0,-1,0
51373498957,-1,-2,-2,-3,-3,-1,-1,-3
51373498957,0,2,-2,2,2,1,-3,-1
51373500698,0,-2,1,-1,-1,-3,-2,1
51373500698,-1,-2,-2,-2,-3,0,0,0
51373512609,1,-1,-1,1,0,-2,-1,-1
51373512609,-2,-2,-1,-9,-5,-2,-1,-1
51373513370,-2,-2,-2,2,1,-2,0,-3
51373513370,-1,1,-4,-4,-3,1,-2,-3
51373535584,0,-2,1,1,0,-2,-1,0
51373535584,0,0,-2,-3,1,-1,0,0
51373550107,1,2,0,1,2,0,1,0
51373550107,-2,-1,-1,-6,-1,-1,-1,0
51373558407,-1,0,-1,3,0,-1,-1,0
51373558407,0,-1,1,3,-2,-2,-2,-1
51373558982,-1,0,0,-4,-2,-1,-2,0
51373558982,0,0,-2,-1,-1,-3,-1,-1
51373572521,-1,-1,-2,-1,1,-2,0,0
51373572521,-4,-2,-2,-3,2,0,-1,-1
51373573355,-2,-1,-1,5,0,-1,-1,-3
51373573355,0,-1,-1,0,-3,0,-2,0
51373603253,-1,-2,-1,-2,-2,-1,-1,1
51373603253,-1,0,0,5,3,-1,2,-1
51373604047,0,-2,-1,-3,-3,-1,0,0
51373604047,-1,-3,1,-3,-4,-2,-1,0
51373625796,-1,-1,-3,-2,-4,-1,-2,0
51373625796,0,-1,-3,-1,-2,0,-2,0
51373626543,0,1,0,0,3,1,-1,1
51373626543,-1,-1,0,-1,-2,-1,0,0
51373632566,1,-1,-1,2,1,0,-1,-3
51373632566,0,-1,1,0,-3,-1,-3,0
51373633363,-1,-1,-1,-2,-3,-1,-1,-1
51373633363,-2,0,-2,-5,-1,-2,-2,-1
51373655198,-1,0,-4,-2,-1,1,2,-2
51373655198,-2,0,-2,0,3,1,2,-1
51373655844,-2,-1,-2,-1,1,-1,-2,-2
51373655844,-1,0,-2,-2,-4,-3,-1,1
51373678260,-2,1,0,-5,-4,-2,-1,0
51373678260,-2,0,0,2,2,-1,0,2
51373679084,-1,0,1,0,-2,-3,0,0
51373679084,-2,-1,-1,-1,0,1,-1,-2
51373692676,1,-3,-1,2,0,-1,0,-2
51373692676,-2,-2,1,-6,-4,-2,-1,0
51373693400,-1,1,-2,-1,1,0,-2,-2
51373693400,-1,-1,0,2,2,-2,-1,1
51373715061,-1,-1,0,-3,-1,-1,0,-2
51373715061,0,-2,-1,3,1,-1,-2,-2
51373715833,-1,-2,0,3,2,0,2,-1
51373715833,0,-3,-2,-2,-3,-2,-1,-3
51373738320,-1,1,-1,-3,-4,-4,-1,0
51373738320,-1,0,0,-1,-1,0,-1,-1
51373739039,0,1,-2,2,1,-2,-1,1
51373739039,-1,0,-1,1,2,0,1,-2
51373753083,0,-1,0,-1,-2,0,-1,-1
51373753083,0,-1,-4,-4,-2,-3,-1,-2
51373753845,0,0,-1,3,1,-1,-2,-3
51373753845,-1,-2,-1,-1,0,0,1,-2
51373775041,-2,-1,0,1,2,-1,-1,-1
51373775041,-2,-2,-3,-7,-1,1,-3,-2
51373775883,-2,-3,-2,0,-5,-2,0,0
51373775883,0,-1,-2,5,2,-1,-3,-1
51373798234,-3,0,-1,-5,-4,-3,-1,0
51373798234,0,-1,-1,4,1,-1,-1,-4
51373799106,-1,2,-4,-5,0,-3,0,-2
51373799106,0,1,-1,1,3,-1,-1,0
51373812586,-3,-1,1,-1,-6,-2,-2,-2
51373812586,-2,-1,-1,2,-3,-1,-1,-1
51373813325,-1,-3,1,-2,-4,1,0,0
51373813325,-1,-2,-3,0,1,1,0,1
51373835046,2,3,-3,-1,2,0,-2,-1
51373835046,0,-1,1,-2,-3,-2,-1,-1
51373835845,-2,0,0,-4,-3,-2,-1,1
51373835845,-1,0,1,9,4,0,-2,-1
51373857568,-1,-2,0,2,3,-1,0,1
51373857568,-1,-1,-3,-3,-7,-1,0,1
51373858341,-1,-2,1,-1,-2,0,-2,-1
51373858341,-1,-1,0,-6,-4,-3,0,-2
51373872544,1,0,-1,2,1,-1,-1,0
51373872544,0,-2,1,0,0,-2,-1,-1
51373873318,1,0,-2,-5,3,0,-2,-1
51373873318,-2,1,2,5,-2,0,0,-2
51373895526,-1,-3,-1,0,2,1,-1,0
51373895526,-1,0,-2,-2,-2,-1,0,0
51373902986,-1,-2,-3,-2,2,0,-1,-1
51373902986,-1,-3,-3,-8,-6,-2,-3,-3
51373918327,-1,-1,-1,-4,-2,-2,0,0
51373918327,-2,-1,0,-2,-3,-1,-1,-1
51373919047,-3,-1,0,4,2,-1,1,-1
51373919047,0,-1,-3,-4,0,-1,1,0
51373932595,1,1,-3,-3,-6,-2,-1,0
51373932595,0,-2,-1,0,2,-1,-1,-1
51373933363,-1,-1,-1,-4,-5,-2,-1,-1
51373933363,0,0,-2,0,-1,0,0,-1
51373955378,-2,-1,-2,-7,1,0,0,-2
51373955378,0,1,1,6,-1,-2,-1,0
51373955979,-2,-1,-2,0,-5,0,-2,-2
51373955979,1,2,-1,-7,-5,-3,-1,2
51373977577,1,-2,-1,1,1,0,0,-1
51373977577,-2,-2,-3,4,4,1,-1,-2
51373978410,-1,-1,-2,-2,1,-1,0,1
51373978410,-2,-2,0,1,-1,-2,-1,-1
51373992000,1,-1,-1,0,-2,-1,0,0
51373992000,0,0,-2,0,3,-1,-1,0
51374000406,0,-3,0,-3,-6,0,1,0
51374000406,1,-3,-4,-2,1,0,0,0
51374015146,0,0,0,3,-1,-2,-2,1
51374015146,-1,1,0,0,1,0,0,0
51374015967,-1,-1,-1,1,-1,-1,-2,-2
51374015967,-2,-2,2,-1,-3,-1,1,1
51374037612,-1,-1,0,-8,-2,1,-1,-2
51374037612,-2,-1,1,6,0,-3,-2,-1
51374038333,-1,0,-1,-1,-1,-1,-1,0
51374038333,-1,0,1,2,0,-1,0,-3
51374052068,0,-1,-1,0,0,-3,-2,0
51374052068,0,0,-2,-4,-1,0,0,-2
51374060115,0,-2,-2,-7,-1,0,-1,-1
51374060115,-3,0,0,12,4,0,-2,-1
51374075075,0,0,-1,-1,1,0,0,-1
51374075075,0,0,-2,-5,-2,-1,-1,-1
51374075839,-1,-1,0,4,3,0,-1,0
51374075839,0,-1,-2,-13,-13,-2,-1,-1
51374097744,-4,-3,0,2,1,-1,-1,-1
51374097744,-2,-3,-1,-4,-3,0,0,-3
51374098379,-2,0,0,4,2,1,-1,-2
51374098379,1,-1,-1,-1,3,-1,0,0
51374112123,-2,-1,0,0,-5,-2,-2,0
51374112123,-2,0,-1,-2,-1,0,0,0
51374120102,-2,-1,0,-2,-5,-3,-2,-1
51374120102,-1,-2,0,-3,-1,0,-2,-1
51374135069,1,0,0,3,1,-1,-1,-1
51374135069,2,0,-3,-3,1,0,-2,-1
51374135841,1,0,-3,-6,0,-3,0,-1
51374135841,-1,0,-1,9,4,0,-1,-1
51374157756,-2,-1,-1,-6,-5,-2,0,-2
51374157756,-2,-1,-1,-5,-3,-1,-1,-1
51374158380,-2,-2,0,0,-1,0,0,0
51374158380,1,0,-2,-6,-4,-1,0,-2
51374180778,-1,1,-2,-2,-2,-2,-1,0
51374180778,1,0,-2,-5,-4,-1,-2,-1
51374181572,-1,-1,-2,3,1,-1,-2,-2
51374181572,-1,0,-1,-4,0,-1,-1,-1
51374195239,-2,0,1,10,6,1,-1,0
51374195239,-1,-3,-2,-6,-4,-2,-1,-2
51374195860,0,-1,0,1,3,0,0,0
51374195860,0,-2,-2,-5,-7,-5,-1,-1
51374217582,-2,-3,-1,-3,0,-1,-1,-2
51374217582,0,0,-1,1,-1,-3,-3,-1
51374218362,-2,-1,-1,-2,-1,0,0,0
51374218362,-1,0,0,-2,2,1,0,-2
51374233363,0,0,0,2,0,0,-1,0
51374233363,-2,0,-3,0,-1,-1,-1,-1
51374240123,-2,-2,0,1,0,1,-2,-1
51374240123,-2,-2,-2,1,-2,-3,0,-1
51374255224,-1,-1,0,-5,-8,-3,0,0
51374255224,-2,-4,0,-4,-4,-1,1,0
51374255908,2,0,0,0,-1,-2,-2,-1
51374255908,-1,0,-1,-2,1,0,-1,1
51374277620,1,-3,-2,3,2,0,-2,-2
51374277620,0,1,0,3,-1,2,0,0
51374278374,0,-1,0,-5,-4,-1,1,-1
51374278374,0,-1,-1,1,3,0,-1,0
51374291993,0,-1,-1,-5,-1,1,-1,-2
51374291993,-1,-1,-2,-1,2,-2,-2,-1
51374300103,-2,-1,-1,2,0,-1,-1,-2
51374300103,-4,-3,2,4,0,2,1,0
51374315162,0,1,-1,-2,-3,-3,-1,0
51374315162,-2,-2,-1,-4,1,-1,0,-1
51374316042,0,-1,-3,0,2,0,-1,-1
51374316042,1,-1,-1,-3,-7,-3,-4,-3
51374337587,0,1,0,-1,0,1,0,-3
51374337587,0,1,-1,3,-2,-1,0,-1
51374338359,0,-1,-2,-2,1,-1,1,-1
51374338359,0,2,-1,-5,0,-2,-1,0
51374360892,-2,-1,-2,8,1,0,0,-1
51374360892,0,-1,-1,-6,-5,-3,-3,-2
51374361601,0,-2,-1,0,-2,-2,-1,-1
51374361601,-1,0,0,1,1,0,0,-1
51374383304,-1,-1,-1,-2,0,-2,0,-1
51374383304,1,-1,1,3,2,1,1,1
51374384043,-1,-1,-2,-3,-3,-1,-1,-1
51374384043,-1,-1,-1,-2,-3,-1,-2,-2
51374397566,1,1,-1,1,4,0,-2,1
51374397566,-1,-1,-1,-2,-4,-1,-1,-1
51374398400,0,1,-1,-5,-4,-1,-2,-2
51374398400,2,2,-4,6,6,0,-1,-2
51374420936,-3,-3,-1,-4,-5,0,1,-1
51374420936,1,-1,-1,-3,-6,-3,-2,0
51374421610,-1,1,1,1,-4,0,-1,0
51374421610,0,-2,-2,-5,-2,-1,0,-1
51374435065,-2,-2,-1,2,3,-1,-1,-2
51374435065,-3,-2,1,4,5,-1,-1,1
51374435847,-3,0,-1,-7,-7,-3,-1,1
51374435847,1,-4,-1,1,0,1,-2,-1
51374457653,0,0,-1,-5,-5,-2,-1,0
51374457653,-2,-3,0,4,1,1,-1,-2
51374458417,-2,-1,-1,4,2,-1,0,0
51374458417,0,0,-3,-2,-2,1,0,-1
51374481197,0,0,-1,-5,-4,-4,-1,-1
51374481197,-1,1,0,-1,1,-1,-1,-1
51374481992,1,-1,0,1,3,-2,0,-2
51374481992,1,0,-2,-3,-4,-4,-2,-2
51374495108,-1,-1,-1,0,2,1,-1,-2
51374495108,1,1,-1,-2,0,0,-1,-1
51374495877,-2,0,-1,2,0,-3,-1,-2
51374495877,-3,-2,0,-3,-2,-3,0,0
51374517620,1,2,-4,-3,-3,-2,-2,-2
51374517620,-1,-3,-3,1,2,2,-1,-2
51374518369,1,-1,-1,-1,-1,0,-2,1
51374518369,-1,0,1,4,1,-1,-2,-1
51374540807,-2,-2,-3,0,0,-1,0,2
51374540807,0,-1,-1,-5,-5,-4,0,-2
51374541604,-1,-2,0,-1,0,-1,-1,-1
51374541604,-1,0,-1,-5,-1,-2,-2,-1
51374555167,-1,-4,-1,-1,0,0,-2,-2
51374555167,-1,-1,0,2,2,-1,-1,-1
51374555877,-1,-1,0,-5,-4,-1,-2,-1
51374555877,0,-1,-1,-4,0,0,1,0
51374585766,0,1,2,2,-3,-3,0,-1
51374585766,0,-2,-3,-3,0,-2,-1,-1
51374586512,-1,-1,-3,1,1,0,-1,0
51374586512,-2,-1,1,6,2,0,0,1
51374600904,-2,-1,-3,-5,0,-1,0,1
51374600904,-1,-1,0,-3,-7,0,0,0
51374601557,-1,-1,1,2,0,0,1,-1
51374601557,-1,-1,-1,-2,0,-2,-1,-1
51374615110,0,-2,-2,-1,-2,-1,-2,-2
51374615110,-2,0,0,5,2,0,0,0
51374616066,0,0,-2,-4,-2,1,0,0
51374616066,0,-1,0,-5,-4,-1,-1,-1
51374637556,-2,-1,0,9,4,0,-2,-2
51374637556,-1,0,-2,-7,-5,-3,-2,-3
51374638346,0,-3,1,4,2,-2,0,-2
51374638346,-1,-1,-3,-5,-3,0,-2,-1
51374661425,-1,-1,1,-1,0,-1,-1,0
51374661425,1,3,-4,0,1,0,0,0
51374662058,-1,-4,-1,0,-1,0,0,-1
51374662058,-1,1,-1,3,0,-1,0,0
51374675103,-3,-2,-2,-7,-6,1,0,0
51374675103,-1,-1,2,3,0,0,-1,-1
51374675853,0,-2,-2,-2,-1,-2,-3,-1
51374675853,1,0,-1,0,-2,-2,0,-1
51374697593,1,0,-1,-3,-1,-4,0,0
51374697593,-3,-3,-1,-1,0,-1,-2,-2
51374698378,-2,0,-3,0,1,-1,-1,-2
51374698378,-2,-1,0,0,2,1,-1,0
51374720773,-1,1,0,-1,-5,-1,0,-1
51374720773,0,-1,0,-2,-6,-2,-2,0
51374721572,0,-1,-2,-2,-2,-1,0,0
51374721572,0,-1,-1,7,6,0,-2,0
51374735153,1,-1,-2,-4,-3,-2,-1,-1
51374735153,0,-1,0,5,4,1,-1,0
51374735975,3,6,-2,-3,0,-3,0,-2
51374735975,-1,-1,0,-5,-8,-1,-1,-1
51374757695,-2,-3,1,-2,1,0,-1,1
51374757695,-1,-1,-1,0,0,-2,-3,0
51374758441,-1,-1,1,3,3,-1,-1,-1
51374758441,-1,-1,-1,-2,-3,-2,-1,-1
51374788292,-1,-1,0,-1,-3,-1,-1,-1
51374788292,-1,-3,-2,-8,-1,-2,1,-1
51374789116,0,-1,-1,1,-2,-1,-3,0
51374789116,-3,-2,-2,-7,-8,-1,-1,-1
51374795078,0,-2,0,3,2,0,0,-3
51374795078,-1,0,-1,-1,1,-1,0,-1
51374795842,-1,0,0,3,1,0,-1,-1
51374795842,-1,-1,-1,0,0,-1,0,0
51374817602,-1,1,-2,-1,0,1,0,1
51374817602,-1,-1,-1,2,0,-1,0,-1
51374818541,-1,-1,-1,-6,-5,-1,-2,-2
51374818541,-1,-1,1,4,2,-1,-1,-2
51374840803,0,1,0,-1,-2,-1,-3,-2
51374840803,1,0,-1,-3,0,0,0,0
51374841539,-2,-4,-3,1,0,-1,0,0
51374841539,-2,-2,-3,-6,-2,-1,-2,-1
51374863360,-2,-1,1,0,1,-1,0,-1
51374863360,0,-1,1,0,-2,0,-1,0
51374864101,0,-1,-1,-4,-3,1,0,-1
51374864101,1,-1,-1,0,-2,-1,0,-1
51374877885,-2,-1,-2,-2,-1,-1,0,-2
51374877885,-1,0,-2,-3,-2,0,-2,-1
51374878358,-1,-2,1,1,0,-2,0,0
51374878358,-1,0,-3,5,6,1,0,2
51374900804,0,1,-2,-3,-4,-1,-4,-2
51374900804,-1,-3,1,-2,-5,-1,0,-1
51374901567,1,-2,-1,-3,-2,-2,-1,-1
51374901567,-3,-2,-1,0,0,1,0,-2
51374915035,1,-2,0,-1,1,-2,-1,0
51374915035,1,0,-2,-3,-3,-1,1,-1
51374916037,-2,-1,-3,2,-2,-1,-3,-1
51374916037,0,-2,0,-2,1,0,0,-2
51374937601,0,-2,0,6,5,1,1,0
51374937601,0,0,-2,-3,-3,-3,-1,-1
51374938422,-3,0,0,-5,-3,0,0,-1
51374938422,1,0,-2,-1,-1,0,-2,-1
51374960968,-1,-2,-3,-4,-1,-1,0,0
51374960968,-2,-1,-1,-1,1,-1,-2,1
51374961609,-1,-1,-1,4,4,0,0,0
51374961609,0,2,-2,-6,-4,-2,0,-2
51374974644,-2,-1,-1,-2,-5,-3,-2,0
51374974644,-1,0,0,2,3,-1,-1,0
51374982642,-2,-2,-3,-9,-8,-1,-2,-2
51374982642,0,-1,-2,6,6,2,-1,-2
51374997600,0,2,-5,-5,-4,-1,-1,1
51374997600,-2,-1,-1,-1,-3,1,-2,-2
51374998376,-1,-2,0,1,0,-2,0,-1
51374998376,-2,-1,1,-1,-2,-1,-1,-2
51375020812,-2,0,-2,0,1,0,-1,-2
51375020812,-2,-2,0,0,-2,-1,-2,2
51375021602,0,-1,-2,-8,-3,1,0,0
51375021602,0,-1,-3,1,-5,-2,-2,1
51375043297,-1,-1,-2,4,1,-2,-1,0
51375043297,0,-1,-2,-4,2,-1,-2,-1
51375044057,0,-2,0,-1,-1,-1,-1,0
51375044057,-1,-2,-1,-2,-1,-1,-2,-1
51375065820,-2,0,0,-1,-2,0,-1,-1
51375065820,0,-2,-1,3,2,1,0,-1
51375066637,-1,1,0,2,0,-2,-2,-2
51375066637,0,0,0,-4,-2,-1,0,-1
51375080820,0,-1,0,-1,-1,-1,-1,-1
51375080820,-1,0,0,1,0,0,-1,-1
51375081629,0,0,-2,-2,-1,-3,-2,0
51375081629,-1,-2,0,-1,-3,-1,0,0
51375094407,0,-1,-1,0,1,-1,0,-1
51375094407,-1,-2,-2,-5,-3,-1,0,-3
51375102622,-1,1,1,11,5,-2,-3,-1
51375102622,-2,1,-2,-2,-1,-2,-1,-2
51375117655,-1,-2,0,-2,-1,1,-4,-1
51375117655,-1,0,-1,-4,-2,0,-1,-2
51375118412,0,0,-1,-3,-1,-1,0,0
51375118412,0,0,-1,0,-2,-3,-2,0
51375140165,-1,-2,-2,0,-1,2,1,-1
51375140165,2,0,-3,0,-1,-1,1,1
51375140981,-1,0,-2,1,-1,0,1,1
51375140981,-1,1,0,2,2,0,-1,-1
51375154449,-1,1,-2,-5,-5,-3,0,1
51375154449,-1,0,1,6,6,-2,-1,-3
51375162627,-1,-1,-3,-8,-8,-2,-2,-2
51375162627,-1,-2,-2,-3,-2,-3,0,-2
51375177664,0,-1,-2,-2,1,-1,-3,0
51375177664,-1,-2,-2,-4,-2,-1,-1,-2
51375178413,0,0,0,8,7,2,-1,-1
51375178413,-1,-1,0,-5,-4,-1,0,0
51375200802,0,1,1,-2,-6,-2,0,-2
51375200802,-2,-3,-4,-4,-1,0,-3,0
51375201547,1,-2,2,-2,-4,-3,0,-1
51375201547,-1,0,-1,1,2,-1,-1,-1
51375214435,0,0,0,0,-1,-2,-1,-1
51375214435,-2,-1,-1,2,0,-1,-1,-2
51375222616,-1,0,-4,-8,-8,-2,-1,0
51375222616,0,0,1,6,4,-1,-1,-1
51375237643,0,0,-4,-3,-5,-3,-2,-1
51375237643,0,-1,-1,0,1,1,-1,0
51375238383,-2,0,-2,-3,-3,0,-2,0
51375238383,0,1,-4,-4,-2,-1,-1,-1
51375268310,-2,-1,2,7,4,1,0,-1
51375268310,-1,-1,0,1,0,-2,-1,1
51375269115,0,-1,-2,1,2,-1,0,-1
51375269115,-1,-2,-1,-2,-2,-2,-1,-1
51375274423,0,-1,0,-5,-4,-2,-1,-2
51375274423,-3,-1,-1,-3,-5,-2,-1,-1
51375290100,-1,-2,1,5,2,0,-1,0
51375290100,-1,-3,-1,-5,-8,-4,-2,0
51375297706,2,0,-1,-2,0,0,-1,0
51375297706,-1,-1,-2,0,-1,-3,-3,-2
51375298407,-2,-1,-2,-2,3,1,0,-1
51375298407,-2,-1,-1,3,3,0,-1,-1
51375320132,1,0,-4,-6,-3,0,-1,0
51375320132,-1,-3,-2,-4,1,-1,0,-1
51375320982,0,-2,0,0,-4,-3,-1,-2
51375320982,0,0,-2,1,-1,-2,0,-1
51375343282,-2,-1,-1,-2,0,0,-1,-1
51375343282,0,1,1,0,-1,1,-1,0
51375344034,-2,0,-3,0,2,-2,-1,0
51375344034,-1,0,-1,-4,-2,2,-1,0
51375365827,-1,0,-3,1,3,1,2,0
51375365827,-1,2,3,0,-3,-3,-1,-2
51375366615,-1,-2,1,-1,0,0,-1,-2
51375366615,2,0,-1,-2,-1,-1,-1,-1
51375380109,-1,-2,0,0,0,-1,-1,-1
51375380109,-1,1,-1,0,1,-1,0,-2
51375380861,-1,0,-2,-3,0,0,-1,-3
51375380861,1,-1,-1,-1,0,0,0,-1
51375403289,0,-3,-2,-4,2,0,-1,-2
51375403289,-1,0,-1,-2,-9,-2,1,-1
51375404120,-1,-1,1,4,2,-2,-1,0
51375404120,-2,0,-3,-1,-3,-1,-2,0
51375418064,0,-2,-1,-2,-1,0,-1,-4
51375418064,0,-1,-3,-2,-2,0,0,0
51375418840,-2,-1,0,-2,-3,-1,0,-1
51375418840,-1,-3,-1,1,-1,-2,0,-1
51375440134,-1,-1,-1,2,1,-2,-1,0
51375440134,0,-2,-1,-1,2,1,-2,-2
51375440972,0,1,-4,-5,-3,-2,-1,-1
51375440972,0,-1,0,-1,1,-2,-2,-1
51375470817,-1,-1,-1,0,-1,-2,0,0
51375470817,-2,-1,-1,2,2,1,0,0
51375471605,0,0,0,-1,-2,0,-2,1
51375471605,-1,0,-1,-1,-2,0,-1,-1
51375477620,0,-1,-2,2,0,0,-2,0
51375477620,0,-3,-2,-10,-6,-2,-1,-1
51375478414,-1,-1,1,5,5,1,0,-1
51375478414,-1,-1,-2,-1,-1,-1,-1,-1
51375500078,-2,-2,1,-5,0,0,-1,-1
51375500078,-1,0,0,4,1,0,-1,-2
51375500973,-1,0,-3,-7,-5,-3,-1,0
51375500973,-2,-1,2,1,0,0,-1,-1
51375523329,-1,-1,1,-1,0,1,-2,-2
51375523329,0,0,0,-2,-3,-2,-1,1
51375524119,-1,-2,-1,-5,-4,-2,1,0
51375524119,-1,0,-1,-2,-4,0,1,-1
51375538052,-1,-2,-4,-3,-7,-3,-3,-1
51375538052,1,-3,1,3,2,-1,-1,1
51375545151,-3,-1,-1,2,2,1,-1,-2
51375545151,0,0,-3,-1,-1,-1,-3,-2
51375568340,-2,1,0,-2,1,-1,0,-1
51375568340,-3,0,-1,2,-2,-1,-1,-1
51375569115,-2,-2,0,-3,0,-3,-1,-2
51375569115,-1,-1,1,-2,-1,0,0,0
51375583335,0,-1,0,0,-2,-2,-1,1
51375583335,1,1,-1,-3,-2,-2,-1,-3
51375584126,0,0,-3,-3,-1,1,-1,0
51375584126,-3,-1,-2,0,0,1,-2,-1
51375597607,-1,-2,-2,-1,-2,-2,-1,-1
51375597607,-2,0,0,5,0,1,1,-1
51375598402,1,0,-2,-6,-1,0,-2,0
51375598402,0,-1,1,6,1,-1,-1,-1
51375620091,-1,-2,0,1,-2,-1,-1,-1
51375620091,0,-4,0,-4,-5,-4,1,0
51375620958,0,0,0,0,0,0,-1,-1
51375620958,-1,0,0,-1,0,-2,-1,0
51375643335,-2,0,-1,-5,-2,-1,0,-1
51375643335,-2,0,-4,-4,-3,-2,-1,-1
51375644079,-2,-1,-1,3,-1,-2,-2,-2
51375644079,-1,-1,0,3,3,-1,-1,1
51375657611,1,2,1,1,-1,1,-1,-1
51375657611,0,-2,-2,-2,1,0,-1,-1
51375658413,-1,-2,-2,-6,-6,-1,-2,-1
51375658413,-1,-1,-1,-2,2,-1,1,-2
51375696453,-3,-1,-2,1,-1,0,0,-2
51375696453,0,-1,0,0,0,-2,0,-1
51375697240,-1,-1,0,0,0,0,0,-2
51375697240,-1,-2,-1,0,-2,-1,-1,0
51375703308,0,1,-1,-2,0,-3,-1,0
51375703308,-1,-2,-2,0,-1,-2,-1,-1
51375704110,-2,-2,0,5,3,-1,0,0
51375704110,-2,-2,-2,-5,-6,-1,-2,-2
51375717602,-1,0,0,0,0,-2,0,0
51375717602,0,0,0,1,0,-2,-2,-2
51375718385,1,1,0,1,-1,0,0,0
51375718385,-2,-1,-2,-3,0,-1,0,-2
51375748314,0,0,-1,-7,-10,-3,0,-1
51375748314,0,3,-3,2,2,-2,-1,-3
51375749081,-2,-1,1,3,0,-1,-2,-2
51375749081,-1,0,-1,-3,-1,0,0,0
51375770845,-1,-2,0,4,2,-1,-1,-2
51375770845,-1,-2,-2,-6,-3,0,-3,1
51375771616,-1,-1,-1,-1,6,-1,0,-1
51375771616,1,-1,-3,-5,-8,-3,-2,1
51375777621,-4,-2,0,0,2,0,-1,-2
51375777621,-2,-1,1,0,1,0,-1,-1
51375778403,1,1,-2,-2,-2,-3,0,1
51375778403,-2,-4,0,-1,1,0,0,-1
51375800097,1,-1,-1,0,-2,-2,0,-1
51375800097,-1,-1,1,1,-1,-1,-1,-3
51375800985,-1,0,0,-5,-2,0,-2,-1
51375800985,-1,-1,-1,-3,-2,-3,-1,-1
51375823802,1,0,0,4,1,0,-1,-1
51375823802,-2,-3,-2,-6,-5,-1,0,-1
51375824610,-1,-1,-2,1,-1,1,1,-1
51375824610,1,1,-3,-2,-2,-2,-1,-2
51375845843,0,1,0,3,2,0,0,0
51375845843,-2,-2,1,2,0,-2,-1,1
51375846679,-2,0,0,-4,-6,0,-1,-1
51375846679,0,-1,0,-4,1,0,-2,-2
51375860094,0,-2,0,-1,-2,-3,0,0
51375860094,-2,1,-3,0,0,0,-2,1
51375860964,-1,-1,-2,-2,-4,-1,0,-2
51375860964,0,0,0,0,0,-1,-1,1
51375882429,0,-1,0,1,2,0,-2,-1
51375882429,-1,-3,0,-3,-5,-1,-1,0
51375898305,-3,0,-2,1,-1,-1,-1,-2
51375898305,-1,-2,-1,-2,-2,-1,-1,-2
51375899944,-2,-3,-2,-2,-3,0,-1,-1
51375899944,1,-2,0,5,2,-2,1,0
51375905142,1,-2,0,-4,-2,-2,-2,0
51375905142,0,0,-2,-5,-4,-2,-1,-1
51375920155,0,1,1,8,3,0,-3,0
51375920155,-1,-2,-1,0,2,0,-1,-1
51375920972,0,-1,-2,0,3,0,-1,0
51375920972,-2,-1,0,-1,-2,-1,-1,-1
51375950840,-1,-1,-2,-8,-6,-1,-1,-1
51375950840,0,2,-2,-5,-5,-1,0,0
51375951626,0,-3,2,8,7,0,-3,0
51375951626,0,0,-1,1,-4,-1,1,-1
51375956974,-1,-1,-3,-1,1,-2,-1,-1
51375956974,-2,1,-4,-10,-4,-1,-2,-3
51375965144,0,0,0,4,1,0,0,-1
51375965144,-2,-2,1,0,-2,0,0,-2
51375980145,-1,-2,-2,-2,-3,1,-1,0
51375980145,-1,-1,-2,0,1,1,-1,-2
51375980976,0,0,-2,-6,-2,0,-2,-2
51375980976,0,-3,0,-1,0,-1,-1,0
51376003263,-1,0,1,4,2,-3,-2,0
51376003263,0,1,1,0,-1,-3,0,1
51376004094,0,-1,-3,-3,-4,-1,-1,0
51376004094,-1,-1,-2,3,1,-1,-1,-1
51376016944,-1,-1,-3,-4,0,0,0,-1
51376016944,-1,-4,-1,-4,-5,-2,-1,0
51376025144,-2,-1,0,-3,-1,-1,0,-1
51376025144,-1,0,-1,-6,-2,-3,0,-3
51376048336,-1,1,0,6,1,-1,1,0
51376048336,1,-1,1,2,2,0,-2,-1
51376049106,-1,-2,-1,-1,-3,-1,-1,0
51376049106,1,0,-3,-4,-7,-3,-1,-1
51376063304,-3,-1,-1,-3,-4,-2,0,-2
51376063304,-1,-1,-1,-3,-4,-2,0,-1
51376064128,-1,-2,1,-4,-2,0,-1,0
51376064128,0,0,1,8,5,0,0,1
51376076996,0,-1,-1,-1,-2,-1,0,-2
51376076996,-2,0,-1,1,1,-2,-3,-1
51376085188,0,-1,-2,-8,-2,-1,0,0
51376085188,1,-2,-1,3,1,-1,-2,0
51376100174,-2,-1,1,-5,-2,1,0,0
51376100174,0,0,1,-1,-1,0,-1,0
51376101010,1,1,0,1,0,-2,-1,0
51376101010,-2,0,-1,-3,-2,-2,0,-2
51376124004,-1,-1,-1,2,0,0,-3,-1
51376124004,2,3,-3,-1,2,-1,-3,-2
51376124759,-1,1,-4,-1,-5,-2,-1,-2
51376124759,-1,-1,0,0,1,0,-2,-1
51376137198,0,-1,-1,3,1,-2,-2,0
51376137198,-1,0,-3,-4,-8,-4,0,0
51376145233,0,-2,0,2,-1,0,-2,-3
51376145233,-2,1,1,4,3,-1,0,-1
51376160156,-2,0,-2,-4,0,1,1,-2
51376160156,-1,-1,0,1,1,-2,0,-1
51376160933,-3,0,1,2,0,-1,-1,0
51376160933,0,0,1,-3,0,-1,-1,0
51376183514,0,-2,-1,-3,-3,-1,-2,-1
51376183514,0,-4,1,1,1,-1,-1,-2
51376184182,0,0,-1,-1,-2,-2,0,-2
51376184182,-1,1,-2,-2,-1,0,-3,-2
51376197502,-1,-1,-3,-4,-3,-2,-1,0
51376197502,-1,-1,-4,1,1,2,0,0
51376205140,-1,-1,-1,-1,-1,0,-1,0
51376205140,1,0,-4,-1,-2,0,-1,-1
51376228539,-1,-1,0,-4,0,0,-1,-1
51376228539,1,-1,1,1,0,-2,-1,-1
51376229149,0,0,-2,1,-1,0,-1,-1
51376229149,-2,-3,0,2,0,0,-2,-1
51376250867,0,-2,-3,-1,-2,-1,-1,0
51376250867,-2,-1,0,-2,0,-1,-2,-2
51376251662,-2,-1,-3,-7,-4,-1,0,1
51376251662,1,-2,-4,-6,-1,-2,1,-3
51376265841,-1,0,0,6,3,-3,-2,0
51376265841,-1,0,-1,0,-3,-3,-1,-1
51376266617,-1,1,-1,0,-3,-1,-2,0
51376266617,-1,-3,-2,-5,-5,0,-1,0
51376280253,-1,-2,-1,-4,0,2,-2,-2
51376280253,-2,-1,-2,-2,-2,0,0,-1
51376281019,0,-1,0,-2,-1,-3,-1,-2
51376281019,-1,0,-2,3,2,0,-1,0
51376303381,0,0,-2,-3,-1,-4,-1,0
51376303381,0,-1,-2,-4,-3,0,0,1
51376304132,-1,-4,1,-1,-3,-2,-1,-1
51376304132,-4,0,0,-2,0,-1,-2,0
51376325822,0,0,0,-2,-3,-1,0,-2
51376325822,-2,-2,-1,-1,1,0,0,-2
51376326618,0,-3,-2,-2,-1,-2,-1,0
51376326618,0,-2,1,1,0,-1,1,-1
51376340337,-2,0,-3,-8,-7,-1,0,0
51376340337,0,0,-1,0,0,-1,-2,0
51376341013,-1,0,-3,2,2,-2,-1,-2
51376341013,-3,-1,-1,2,-1,-1,-1,-1
51376363295,-1,0,-2,0,2,-1,-1,-1
51376363295,0,-1,-1,0,-3,-2,-3,-3
51376364089,0,0,-1,-1,-3,-1,-1,0
51376364089,-1,-2,-1,-4,-2,-1,-2,-1
51376386008,-2,-1,0,-1,-1,-1,-1,0
51376386008,1,1,0,2,-1,-1,-1,-2
51376386711,-1,-1,0,-1,3,1,-3,0
51376386711,0,0,-2,-1,-3,0,-2,0
51376400211,1,-2,-1,0,0,-1,-2,-1
51376400211,-1,-2,-2,-2,1,0,0,-1
51376400954,-2,-1,0,0,-3,0,-2,-1
51376400954,0,-1,-1,-2,-2,-2,-2,-1
51376430987,-1,-4,1,1,2,-2,0,0
51376430987,-2,-2,-4,-9,-7,-3,-2,0
51376431586,-1,0,1,5,2,-1,-1,0
51376431586,0,-2,-2,-4,1,-1,-2,0
51376453348,-2,1,-1,1,-2,-1,0,-1
51376453348,-1,-1,-2,-1,3,-1,0,0
51376454152,0,1,-4,-9,-6,-3,-1,0
51376454152,-1,1,0,6,2,-2,-3,-1
51376460096,0,-1,-2,-2,1,-1,-1,-2
51376460096,0,1,-2,0,-2,-2,-2,1
51376460940,-1,-1,-2,1,0,1,-1,-3
51376460940,2,-1,0,-6,-5,-2,-1,0
51376482676,-2,0,-1,0,-3,-1,0,-1
51376482676,-3,-1,-1,0,0,1,0,-1
51376483451,0,-1,-2,-1,0,-2,-1,2
51376483451,-1,-2,-1,1,-2,0,-1,0
51376506316,1,0,-1,-4,-2,-3,-2,-1
51376506316,-1,-2,0,1,1,-2,-1,-2
51376507089,-1,-1,-2,-3,-1,-1,1,-2
51376507089,-2,-5,3,4,3,1,0,-3
51376528584,-2,-3,-2,-4,0,0,-2,-1
51376528584,-1,0,1,6,4,1,0,-1
51376529177,0,-2,-3,-2,-2,-2,-1,-1
51376529177,-1,2,-3,-3,-6,-2,0,1
51376542826,0,0,-1,0,-1,0,-1,0
51376542826,-1,-2,-2,-5,-6,-1,-1,0
51376543451,-2,-1,1,6,5,0,-1,-2
51376543451,-1,-3,-2,-4,-6,-3,-1,-1
51376565848,1,0,-3,-1,-1,0,1,-1
51376565848,1,0,-3,-2,-1,-2,-3,1
51376566610,-1,1,-1,-3,-2,-1,-1,-1
51376566610,-2,1,-1,2,3,-1,-2,0
51376580241,-2,0,-2,-6,-1,0,-1,1
51376580241,0,-3,2,1,-2,-2,0,-1
51376581027,-3,-2,-2,-3,0,-1,-1,-1
51376581027,1,0,-1,1,1,-1,-1,-2
51376602707,-2,-1,0,2,1,-1,-3,-1
51376602707,-3,-1,-1,-4,0,2,0,-3
51376603452,1,0,-2,1,-1,0,0,0
51376603452,0,-1,-2,-4,-2,-1,-1,-1
51376625809,1,-1,-1,1,0,-2,0,0
51376625809,0,1,0,1,-2,0,-1,0
51376626595,-1,-2,-2,-4,-6,-2,-2,1
51376626595,-1,1,-3,-2,0,0,0,-2
51376640224,-3,-1,-2,3,-2,-2,-3,-1
51376640224,-1,-1,0,2,3,-2,-1,1
51376641024,-1,-1,-1,1,2,0,0,0
51376641024,0,3,-3,0,-7,-4,0,0
51376662648,-1,-2,0,-1,-3,0,-1,-2
51376662648,0,0,-1,-1,-1,-1,-1,-2
51376663415,1,0,0,-4,-1,-3,-1,0
51376663415,-1,-3,2,0,2,-1,1,-1
51376685957,0,-1,-1,0,-4,0,-2,-1
51376685957,-2,-2,0,1,1,1,-1,-2
51376686704,-2,-1,-2,2,2,1,-1,-2
51376686704,-3,-1,-2,-4,2,0,0,-1
51376700162,-1,-2,0,-1,-3,-1,0,-1
51376700162,-1,-2,-2,-4,1,-1,0,-1
51376700971,1,1,0,1,-2,0,-3,0
51376700971,-1,-2,-1,1,1,1,0,-2
51376730918,-1,-1,0,-6,-3,-1,-2,0
51376730918,1,-1,-3,1,-1,-1,-1,1
51376731650,-3,-2,0,0,-1,-2,-1,0
51376731650,-1,0,0,-1,-1,-2,-1,0
51376746098,1,1,-2,-2,-3,-2,-1,-1
51376746098,0,-1,-2,-2,-2,-1,-1,2
51376746712,-1,0,-2,-4,-3,-3,1,0
51376746712,0,-2,-1,-1,2,2,-2,0
51376760160,1,4,-3,-1,-2,-2,-1,-2
51376760160,-2,-1,-1,-6,-1,-1,-1,-2
51376760950,1,0,1,4,-2,-2,0,-1
51376760950,-1,0,-2,-3,-4,-2,1,-2
51376783199,1,-2,1,1,1,-2,-2,-2
51376783199,1,-1,-1,-2,-7,-2,-2,-2
51376784022,-2,-3,-1,-4,-1,0,-1,-1
51376784022,-2,-1,-1,0,0,1,-1,-2
51376805882,-3,-2,-2,-6,-7,-1,0,-1
51376805882,-3,-1,0,3,3,1,-1,0
51376806660,-1,-1,-2,-1,-4,-1,-2,-1
51376806660,0,-3,-2,1,-3,0,-2,0
51376821204,-1,-3,-1,1,0,-1,0,-1
51376821204,0,0,0,0,-1,-1,-2,-1
51376822132,-1,1,-1,-1,-2,1,-2,-2
51376822132,0,-1,-1,-1,1,-1,1,0
51376842898,-3,-3,-1,-1,1,0,0,0
51376842898,0,0,0,0,-2,-1,1,0
51376843465,-2,-3,2,3,2,-1,-2,-1
51376843465,1,-1,-2,-1,-2,-3,0,-1
51376865825,-1,-1,1,0,-1,0,-1,1
51376865825,-1,0,-4,-3,0,-1,0,0
51376866651,0,-2,-2,-3,-1,-1,1,-1
51376866651,1,0,0,2,-1,-1,-2,0
51376879756,-2,0,-2,-2,0,0,0,-1
51376879756,-1,-1,-1,-3,-2,-1,-2,-3
51376887782,-2,0,-2,-5,-4,-1,-2,-3
51376887782,-2,-1,1,0,0,1,-2,-2
51376902696,0,1,-2,1,-1,-3,-1,-1
51376902696,0,-1,-1,1,1,0,-1,-1
51376903467,-2,-3,-1,-2,-1,-2,0,0
51376903467,-1,0,-1,-3,-2,-3,-1,0
51376924970,1,-2,0,-3,0,0,0,0
51376924970,1,0,-1,3,1,0,-1,-1
51376932794,3,2,-3,-5,1,0,-1,0
51376932794,-1,-2,-2,3,-2,1,2,0
51376939614,0,0,-1,-3,-3,-2,-1,0
51376939614,-3,-1,-1,1,-1,-2,-1,-1
51376955280,0,-2,1,-2,-1,1,-3,0
51376955280,-1,0,-1,2,3,1,-1,-1
51376962679,1,-2,-1,-3,-1,1,-1,0
51376962679,-1,-1,-1,4,4,0,-2,0
51376963431,-1,-2,-2,-7,-4,-3,-2,-1
51376963431,-1,-2,-1,-3,-2,-1,-2,-1
51376986549,-1,-1,-3,3,1,0,0,-2
51376986549,-1,-3,0,-2,-3,-1,1,0
51376987129,0,1,-3,3,1,-1,-1,-1
51376987129,0,-2,-1,-3,-1,-1,-2,-1
51377008351,0,-1,-3,-4,-7,-3,-1,-2
51377008351,0,-2,1,4,3,1,-1,-1
51377009130,0,0,0,1,-1,-1,-1,1
51377009130,0,1,0,0,-1,0,-1,-1
51377022640,-3,-3,-1,-3,-2,0,0,-2
51377022640,0,-2,-2,-5,-4,-3,-1,0
51377023437,-2,-2,-1,5,0,1,-1,-3
51377023437,0,0,-2,-3,-2,-4,-2,-1
51377046058,-1,-1,-1,-6,2,-2,-1,1
51377046058,-2,-2,1,0,-2,-1,-1,-1
51377046679,-2,0,-5,-6,-6,-2,0,-2
51377046679,-1,-2,0,0,-1,1,0,1
51377059527,-1,-1,0,0,2,3,-2,0
51377059527,0,-1,1,-4,-3,-2,-1,0
51377067695,-1,0,0,0,0,-1,1,0
51377067695,-2,-1,0,1,2,-1,-2,0
51377082667,-3,-1,-1,-6,-4,-1,-1,-2
51377082667,-1,0,1,5,-1,-2,0,-1
51377083577,-1,0,-2,1,2,0,0,-2
51377083577,0,0,-2,-2,-3,-1,-1,-1
51377105887,1,-1,-1,3,3,-1,-1,-2
51377105887,-2,0,-2,-4,-2,-1,0,0
51377106647,1,-1,-1,-7,-2,-2,-3,-1
51377106647,0,-1,-1,3,1,-1,-1,-2
51377119575,1,-1,1,-3,-7,-2,0,0
51377119575,0,0,-2,-4,-2,-2,-1,-2
51377127394,-2,-1,-1,-1,2,0,0,0
51377127394,-1,0,-2,-4,-3,0,0,0
51377142900,0,-3,2,3,3,1,0,1
51377142900,1,0,-1,-4,0,-2,-1,-1
51377143448,-1,-3,0,2,3,0,-1,-1
51377143448,-1,-2,-2,-2,-7,-4,-1,0
51377165874,-3,0,-1,2,1,0,1,0
51377165874,0,0,-2,-5,-4,-1,-1,-1
51377166622,1,-1,1,-1,-1,1,0,1
51377166622,0,0,-2,-8,-1,-1,-1,1
51377188501,0,1,0,11,1,-3,0,-1
51377188501,-3,-1,-3,-9,-8,0,0,0
51377189198,1,0,-1,0,-2,0,-1,-2
51377189198,-1,-3,-3,-6,-2,-2,0,-2
51377210874,1,0,-2,4,3,0,-1,-3
51377210874,-1,0,-1,4,3,-1,-2,0
51377211646,-3,-2,-1,-4,-1,0,-2,-1
51377211646,-1,1,1,4,-7,-2,-2,0
51377233471,-1,-1,-1,-2,0,0,-2,-1
51377233471,-4,-2,0,4,1,-1,-1,-1
51377234264,-1,-1,0,0,0,-2,0,-1
51377234264,-1,0,0,1,3,1,1,0
51377248454,0,1,-3,-3,-5,-2,-3,-2
51377248454,-2,-4,2,1,-1,0,-1,0
51377249217,-1,-1,-2,-1,-1,-1,-2,-1
51377249217,-2,-1,-1,0,1,-1,-1,-1
51377262688,-2,-1,-1,-3,-1,-2,-1,0
51377262688,0,0,-3,-1,2,0,-1,0
51377263472,0,-1,-1,1,-2,0,-1,-1
51377263472,0,-2,-1,-9,1,0,0,0
51377285992,-2,-2,1,0,-6,-3,-1,0
51377285992,0,-1,-2,-5,-6,-1,-2,-2
51377286732,-1,0,-1,1,0,-1,1,1
51377286732,0,-1,-3,1,0,0,-1,-2
51377308459,0,0,-2,-5,-1,-1,-1,-1
51377308459,0,-1,-3,1,2,0,0,0
51377309243,1,1,0,-1,-6,-4,-3,-3
51377309243,0,-3,-1,-3,0,-1,-1,-2
51377323483,0,0,-1,2,1,-2,-1,-2
51377323483,0,-1,-1,-4,-4,-1,-2,-1
51377325214,1,-1,0,-1,0,-1,-1,-1
51377325214,1,-1,0,4,0,-2,1,2
51377345978,-2,-6,2,-4,0,2,0,1
51377345978,0,-1,-2,3,2,-1,-2,-1
51377346749,0,1,-3,-3,-6,-1,-1,0
51377346749,-1,-3,0,1,-2,-1,-3,-1
51377368365,-1,0,-1,1,-2,-2,-2,1
51377368365,-1,-2,-1,1,0,0,-2,-1
51377369141,-4,-2,-2,-1,1,0,-2,-2
51377369141,-2,0,-2,-1,1,0,0,-1
51377382697,-1,1,-2,-4,-4,-1,-1,-2
51377382697,0,0,-2,-1,1,-1,1,0
51377383429,0,-2,-2,2,2,-1,0,-1
51377383429,-3,2,0,3,1,0,-2,-1
51377405629,-1,-1,-2,-9,2,0,0,-3
51377405629,0,-1,-1,-4,-4,-1,-1,-2
51377412759,0,-1,2,6,-2,-2,-1,-1
51377412759,-1,-2,-2,-2,-1,-1,1,-1
51377435919,0,2,0,2,0,0,-1,1
51377435919,0,-1,1,-3,-1,-1,-1,-1
51377436757,0,1,-5,-7,-2,1,-1,-3
51377436757,-1,-1,2,4,0,-1,0,-1
51377442840,-1,-2,-3,-2,-2,-3,-3,0
51377442840,-1,-1,-3,-2,0,-1,-2,0
51377443451,-2,-1,0,-1,0,-1,0,0
51377443451,-1,0,-2,-1,-2,-1,-1,-2
51377465884,0,-1,-4,-6,-5,-1,0,-2
51377465884,0,0,1,1,1,-2,0,-1
51377466676,-1,-1,-2,-2,0,-1,-2,-2
51377466676,1,1,-1,0,-1,0,-1,-1
51377488605,-1,-1,0,3,2,0,-1,-2
51377488605,-2,0,-1,-1,-2,-1,-1,-1
51377489198,0,0,1,-3,-4,-2,0,0
51377489198,0,0,0,0,1,0,-1,-1
51377510891,0,0,-3,-6,-8,-1,-2,-1
51377510891,-3,-2,4,9,5,0,0,0
51377511672,-1,-1,0,0,2,0,-1,-1
51377511672,1,0,-2,-5,-5,-2,-1,-1
51377526022,0,-2,1,0,0,0,2,-2
51377526022,0,-2,-3,-6,-5,-2,0,0
51377527608,1,-1,2,4,1,0,-1,-2
51377527608,0,-1,-1,-4,-3,-2,-2,-1
51377548458,-1,-1,0,3,2,0,-1,-1
51377548458,0,1,-3,-5,-3,0,-1,-1
51377549212,-2,-1,-1,1,1,-2,-1,-1
51377549212,-1,-2,-3,-7,-8,1,-2,-3
51377562682,-1,0,-2,2,1,-1,-1,-1
51377562682,0,-1,-2,0,-2,0,-1,-1
51377563467,-1,-2,-4,-1,-1,-1,0,0
51377563467,0,-1,0,1,2,0,0,-2
51377585162,0,1,1,4,2,-2,-2,-1
51377585162,-2,-2,-2,-3,-6,-2,0,-1
51377585933,-1,-1,-1,2,0,1,0,1
51377585933,-1,0,-1,1,3,-1,0,-2
51377608518,0,-1,-1,-1,-1,1,1,-1
51377608518,0,-1,-1,-2,-3,-1,-1,0
51377609222,-3,-1,-1,1,1,1,-2,0
51377609222,0,-1,-1,0,-2,-2,-2,0
51377622740,-1,0,-3,-1,-1,-1,-2,0
51377622740,-1,-2,1,1,-2,-1,-1,-1
51377623465,0,-1,-2,-3,-3,-2,0,-2
51377623465,0,1,-3,1,3,-2,1,0
51377645939,-3,-3,-1,-4,-3,-1,0,-1
51377645939,-2,1,-4,0,1,0,-1,0
51377646744,1,-1,-1,-5,-6,-2,-1,-1
51377646744,-1,-1,0,2,2,0,1,0
51377668386,-1,-1,-1,3,-2,-2,0,-1
51377668386,-1,0,-2,-1,0,-2,-1,-1
51377669190,-2,-3,0,1,1,1,0,-2
51377669190,1,-2,-2,-1,-5,-3,-1,0
51377690908,1,-1,0,1,3,-1,-1,1
51377690908,-2,0,-3,-1,0,2,0,0
51377691812,1,0,-2,-2,-3,-3,-2,-1
51377691812,-2,-1,0,-1,1,-1,-1,0
51377713408,0,-1,-1,-6,-3,-1,-2,0
51377713408,-1,-2,-1,1,0,1,-1,-1
51377714221,-2,-1,-2,-6,-3,-2,-1,-1
51377714221,-2,0,-1,0,-2,-1,-1,0
51377729342,-2,0,1,2,5,-1,-1,0
51377729342,0,1,-1,0,0,-3,-2,-2
51377731041,0,-1,-1,-2,1,-1,-1,-1
51377731041,0,-2,-1,-2,-3,-2,-1,-3
51377742848,-2,-1,-2,-1,-2,0,0,-2
51377742848,-1,-2,-2,-6,-5,-2,-1,0
51377743586,0,0,0,0,-2,-1,-2,-2
51377743586,-1,-1,0,0,0,-2,-2,0
51377765240,-2,-1,-3,-2,-1,-1,-2,0
51377765240,-1,0,0,0,1,-1,-1,-1
51377765985,1,-1,-1,-1,-4,-2,0,-1
51377765985,-3,-3,1,2,2,-1,-2,0
51377788349,1,-1,0,-3,-2,-1,1,0
51377788349,-2,-3,-1,0,1,1,0,0
51377789128,0,-1,0,7,3,1,-1,0
51377789128,-1,0,-4,-8,-7,-1,-2,-2
51377802059,0,-1,-1,0,-2,-2,-1,-1
51377802059,0,-2,-2,-2,-2,-1,0,-1
51377810266,0,3,-4,-6,-3,-1,-1,-1
51377810266,0,0,1,9,4,-1,-1,0
51377825172,-1,-1,-2,-1,-3,-1,-1,-1
51377825172,-1,1,2,-1,-1,-2,-1,-2
51377825933,0,-3,-1,-4,-1,-2,1,1
51377825933,-2,-1,-1,0,0,-1,-1,-2
51377848427,-1,0,-3,-4,-2,-1,-1,0
51377848427,0,-2,-1,0,2,2,-1,-1
51377849219,-1,-2,-1,-2,-2,-1,-2,-1
51377849219,-1,-1,1,3,3,-1,1,0
51377862235,-1,-2,-2,-8,-7,-2,-1,0
51377862235,-2,-1,0,3,-1,-1,0,-1
51377870267,-2,-1,-1,0,1,-1,-1,-1
51377870267,-1,0,-1,-1,0,1,-2,-2
51377885865,0,-2,1,0,-1,-2,-2,1
51377885865,0,-1,-1,-1,-5,-3,-2,0
51377886647,-2,-2,1,3,4,1,0,-1
51377886647,1,0,-2,-4,-4,-3,-3,0
51377908520,-1,0,-1,-4,-4,-1,-1,-3
51377908520,-1,1,-2,-3,0,0,0,0
51377909177,2,4,-5,0,-1,-2,-2,0
51377909177,0,-2,-2,0,-1,2,1,0
51377922048,-1,-3,0,-2,-1,-1,-3,-1
51377922048,-1,0,-1,1,-2,-2,-3,1
51377930276,-4,-3,1,-2,-2,-1,-1,-1
51377930276,-2,-1,-1,-2,-1,-1,-1,-2
51377945348,0,-1,-2,2,2,0,0,1
51377945348,-2,-3,-2,-6,-1,-2,1,-3
51377946053,-1,0,2,2,1,1,1,-2
51377946053,-2,0,-1,-4,-3,-3,-1,-2
51377968865,-2,-1,1,3,3,3,-1,-2
51377968865,2,-1,-1,-1,0,-1,1,-1
51377969624,0,-3,-2,0,-1,1,0,1
51377969624,0,-2,0,-2,0,-2,-1,-2
51377990903,0,2,-1,1,-2,-3,-1,-1
51377990903,-2,-1,-1,0,0,-3,-1,0
51377991707,-1,-2,-2,-3,-1,-1,0,-2
51377991707,0,-1,-2,-1,1,0,0,1
51378005276,-2,1,-3,3,3,-1,0,-2
51378005276,-3,-1,0,-5,-1,2,-2,-3
51378006067,-1,-1,-1,-2,-2,-2,-3,-1
51378006067,-2,-1,-1,0,-4,-1,-1,-1
51378028334,-1,0,-2,-1,1,-1,-1,0
51378028334,1,-1,-1,4,3,-2,-1,-1
51378029131,-2,-2,1,-6,-5,-3,-2,-1
51378029131,-1,0,-2,-1,1,0,0,1
51378042034,-1,-1,-2,-4,-5,-1,0,0
51378042034,-1,1,-1,-1,-4,0,-1,-2
51378050349,-2,-1,-1,1,2,-1,0,-2
51378050349,-1,-2,1,-2,-1,0,-1,-2
51378065199,-1,-1,0,1,-2,-2,-1,-1
51378065199,-1,-3,-1,0,2,-2,-2,0
51378066021,0,0,-2,-1,0,-2,0,-2
51378066021,-1,0,-2,-2,-4,1,-3,-1
51378087537,0,0,-1,-2,0,-2,-2,-1
51378087537,0,-2,0,-1,-1,-1,-2,-1
51378095234,-1,-1,0,1,-1,-1,-1,-2
51378095234,0,-2,0,-3,1,0,0,-2
51378102043,-1,-2,-1,4,3,1,0,-2
51378102043,1,0,-1,-4,-4,-1,0,-1
51378111330,0,-2,-1,-3,-1,0,-1,-1
51378111330,-1,2,-1,-2,-2,-2,-2,-2
51378125249,-1,-3,2,-1,-4,-2,-1,-2
51378125249,0,-1,0,0,1,-1,-1,-1
51378126017,-1,0,-1,-9,-6,-2,0,-1
51378126017,0,-1,-2,3,0,-2,-1,-1
51378148399,1,-1,0,-4,-4,-2,-1,-1
51378148399,-1,-2,-1,6,2,2,0,-1
51378149174,0,-3,-3,2,1,-2,-1,1
51378149174,0,0,-2,-3,-2,-2,1,0
51378170928,-1,-1,-2,1,2,-2,-1,-1
51378170928,-3,-3,-2,-3,-4,-2,0,-2
51378171702,-2,-1,0,1,-2,-2,0,0
51378171702,-3,-2,-1,-5,3,2,-1,-1
51378193347,-3,0,1,1,-2,0,0,-1
51378193347,0,0,1,0,0,-2,-2,0
51378194162,0,-2,-1,2,1,-1,0,-2
51378194162,-1,-3,1,-5,-4,-1,-1,-1
51378208550,-2,-3,-1,-3,1,-1,-1,-2
51378208550,-2,0,0,-3,-2,-1,1,0
51378209283,-1,0,-1,-2,-1,1,-3,-1
51378209283,0,-1,0,7,1,-3,0,-1
51378230873,1,0,-1,-3,-2,-2,-2,0
51378230873,-1,-1,-2,-2,0,-1,-1,-1
51378231662,0,-1,1,-2,-2,-4,-1,1
51378231662,0,-1,-1,-1,-1,0,0,-3
51378245360,1,1,0,-1,0,-1,-1,0
51378245360,-1,0,-3,-2,-1,-1,0,-1
51378246031,0,0,0,-3,-1,0,-1,-2
51378246031,-3,1,-2,7,3,-2,-2,-2
51378268607,-1,-2,-1,-3,-7,-3,-2,-1
51378268607,-1,-1,-2,-2,-1,-1,-2,-2
51378269196,-1,-2,-2,-3,-3,-2,-1,-1
51378269196,0,-1,-1,0,-3,-2,0,0
51378290890,-2,-3,-2,1,2,1,1,1
51378290890,1,3,0,-2,-2,-1,-1,0
51378291691,-1,0,-1,1,-1,-1,0,-1
51378291691,-1,-1,-1,-7,-3,1,-2,-1
51378305224,-2,-1,-1,2,-1,-1,-1,-1
51378305224,-2,-3,-2,-1,-1,-1,-1,-3
51378305980,-2,-1,-2,-1,0,1,-2,-2
51378305980,-1,-1,-1,1,0,-1,0,-2
51378328434,-1,-1,-2,1,6,3,0,-1
51378328434,-1,-3,1,-2,-3,-2,-1,-1
51378329163,-1,-1,-3,-6,-8,-3,-3,-2
51378329163,1,-2,0,-3,-4,-2,-1,-1
51378351054,1,-1,-1,0,1,-1,1,0
51378351054,-1,-1,-3,-2,-2,-1,1,1
51378351785,-2,-2,2,6,5,1,-1,-2
51378351785,1,-2,0,1,1,-1,0,-2
51378373436,0,0,1,0,-2,-2,-1,-3
51378373436,-1,-2,-1,-3,2,0,0,0
51378374194,1,-1,-3,-1,-2,-1,1,1
51378374194,-1,0,-4,-2,-3,-1,-2,0
51378396017,-1,-1,-1,-1,0,-2,-1,-2
51378396017,-1,0,-4,-1,0,-1,-2,-2
51378396756,-2,-1,0,-1,-1,-3,-2,-1
51378396756,0,-2,-1,-4,-5,-1,-3,0
51378418546,-1,0,0,4,2,0,-2,-1
51378418546,1,-2,-3,-6,-6,-2,-2,0
51378419196,-1,0,0,-1,1,-1,-1,-1
51378419196,-2,1,-2,0,-1,0,-1,-3
51378425189,-2,-1,-3,4,3,0,-2,-2
51378425189,-3,-2,-2,-5,-6,-3,-1,-1
51378425994,0,-1,-1,5,3,-1,-2,1
51378425994,-2,-2,-1,-4,-2,1,-1,0
51378448445,1,-1,-1,-3,-2,-1,0,0
51378448445,-1,-1,1,7,6,2,0,-1
51378449225,-1,-1,-1,-4,-5,-2,0,-3
51378449225,-2,0,1,-2,-3,-1,-1,-1
51378478421,1,-1,-2,-3,-1,-1,-3,-1
51378478421,1,-2,-2,0,-1,0,0,0
51378479219,-2,-2,0,2,2,0,-1,-2
51378479219,-2,-1,-2,0,1,-1,-2,-1
51378485167,-1,3,-4,-9,-8,-2,1,-2
51378485167,-2,-1,0,-2,-3,-1,0,-1
51378486039,0,0,-1,3,1,1,-2,-1
51378486039,-2,-1,-2,-5,-4,-1,0,-1
51378508622,1,-1,1,4,2,0,-2,0
51378508622,-1,1,-1,-4,-4,-2,-1,0
51378509218,0,1,0,6,3,-1,0,-2
51378509218,1,0,-1,-2,-3,-2,-3,-2
51378530960,-1,-4,-1,-3,-3,-2,-1,-1
51378530960,-1,-2,-1,-2,0,-2,-2,-1
51378531715,-1,-1,0,0,-1,-1,-2,0
51378531715,1,0,1,0,0,-2,-1,-1
51378545244,-2,0,0,0,-3,0,0,0
51378545244,0,-1,-1,0,0,-2,-1,0
51378546019,0,-1,-2,-5,0,-2,-1,-1
51378546019,-1,-2,0,2,2,-2,0,-1
51378568563,-1,-1,-1,-2,-3,0,-1,0
51378568563,-1,0,-2,-4,-2,0,0,1
51378569182,0,-1,0,-1,-1,-2,-1,0
51378569182,-3,0,1,1,0,0,0,-2
51378591293,-1,0,-2,0,-2,0,-1,-1
51378591293,-2,0,1,3,1,0,0,-2
51378592123,1,-1,-3,-1,-2,0,-1,0
51378592123,-2,-1,-2,-6,-5,-1,-1,-1
51378605235,-1,-2,-4,-6,-4,-1,0,-1
51378605235,-1,0,2,10,5,-1,-2,0
51378606200,-3,-1,-2,-6,-3,1,-2,-2
51378606200,1,0,0,2,7,0,0,0
51378628443,-1,-2,-3,-5,-8,-3,0,-1
51378628443,0,-1,0,0,-1,-1,-2,-1
51378629248,-1,0,-1,-1,-3,0,1,-2
51378629248,0,-1,-3,-1,0,-2,1,2
51378651039,0,-2,-1,2,2,1,-2,0
51378651039,0,-1,-1,0,0,-1,-1,-1
51378651703,-1,-2,0,-2,-1,0,1,1
51378651703,-2,-1,-1,-5,-3,-1,-2,-1
51378673471,-1,-5,2,5,1,-1,0,-3
51378673471,-1,0,-2,3,0,-1,-1,-2
51378674233,-1,0,0,-5,-1,-2,-2,-1
51378674233,0,0,-1,-1,-4,-3,-3,-1
51378695886,-2,0,0,1,6,-1,-1,-1
51378695886,0,0,-1,-3,-4,-1,0,0
51378696714,-1,0,-2,1,-1,-2,-1,0
51378696714,-1,0,-3,-4,-6,-2,-1,-2
51378711029,1,0,-1,-3,-2,-2,0,1
51378711029,-2,-1,-1,1,2,-1,-1,-1
51378711747,-1,-2,-1,-1,-1,0,0,0
51378711747,-1,-1,1,0,2,0,0,0
51378724634,-2,1,0,0,-2,0,-2,1
51378724634,-1,-2,-2,-5,-5,-1,-1,-1
51378732830,-1,-2,-1,1,-1,0,0,-1
51378732830,0,-1,0,-1,-2,-3,0,0
51378748882,-1,1,0,2,3,-1,-1,-2
51378748882,0,-2,-3,-9,-6,-2,0,-1
51378749727,0,-1,0,-1,-7,-2,-1,0
51378749727,2,2,-6,-1,-1,-3,0,-2
51378771116,0,-1,0,1,2,1,1,0
51378771116,-1,0,1,0,2,1,-1,0
51378771706,0,0,-2,-3,-1,-2,-1,0
51378771706,-1,-1,0,1,1,-1,-2,-2
51378784584,-2,0,-1,-4,-3,-3,-1,-1
51378784584,-2,-1,0,2,2,0,-1,-1
51378800318,-1,-2,-1,-2,-3,-1,-2,0
51378800318,-2,-2,0,2,0,1,-1,0
51378808567,0,0,-1,1,1,-1,-1,-1
51378808567,1,-1,-2,-1,1,-1,1,-1
51378809304,-1,0,0,-1,1,-1,0,-1
51378809304,1,-2,2,-2,-1,-2,0,-1
51378830943,0,0,-2,-3,-9,-2,-1,1
51378830943,-1,-1,-2,-1,-1,-1,-3,2
51378831732,-1,1,-2,-5,-4,-1,-1,-3
51378831732,0,-2,-1,5,0,0,0,-1
51378844973,-1,-2,-1,-5,1,0,-2,0
51378844973,0,-2,0,8,4,-1,2,-1
51378852755,-1,3,-3,-1,0,1,-2,0
51378852755,-2,-1,0,-2,2,0,-2,0
51378876192,-1,-2,-1,-5,-6,-1,-1,-1
51378876192,-2,0,0,1,-1,-1,0,-1
51378876768,-2,-4,-2,-1,3,0,-1,0
51378876768,-2,0,-2,0,-3,-1,1,-1
51378898394,-2,1,0,0,0,-2,0,-1
51378898394,-2,-1,-2,-5,-3,0,-1,-2
51378899212,-2,-3,0,-1,-2,-4,-1,-2
51378899212,0,-1,-2,2,1,0,-1,0
51378904526,-1,-1,-1,-1,-1,-1,-1,-1
51378904526,0,0,-1,0,1,-1,-1,-2
51378912818,0,-1,-2,-2,-1,-1,-2,0
51378912818,-1,-2,0,2,1,0,-2,-3
51378928901,-1,0,1,-1,3,0,0,-1
51378928901,1,-1,-2,-5,-4,-2,0,-1
51378929662,0,0,0,5,2,0,0,0
51378929662,-1,-2,-1,-7,-2,-1,-1,1
51378950994,-2,-3,-1,5,-1,-1,-1,0
51378950994,-5,-3,3,3,0,1,-1,-2
51378951744,3,1,-2,-3,-1,-1,-1,2
51378951744,-2,0,-2,-4,-6,-1,-2,-1
51378973505,0,-1,0,-1,-2,1,-1,-3
51378973505,-1,1,-1,-2,-2,-1,0,0
51378974249,0,-1,0,1,-2,-1,1,-2
51378974249,-1,-2,-1,1,0,-2,-2,-1
51378987768,0,-2,0,-2,1,0,-1,-1
51378987768,1,-1,-1,-3,-1,-1,0,-1
51378988539,-2,-2,-1,-1,0,-2,-4,-1
51378988539,-1,0,0,-3,1,-1,-2,-1
51379010969,-1,0,-3,-4,-3,-2,-1,0
51379010969,0,1,-3,2,3,-2,-2,-2
51379011686,-2,0,-1,-2,-1,-2,-1,0
51379011686,-2,-2,-1,-1,-2,-1,0,-2
51379025245,-1,0,-2,1,-1,-2,-3,-2
51379025245,0,-1,-2,-4,-1,-2,0,-1
51379032806,-1,-2,1,1,0,-1,0,0
51379032806,-2,-3,-2,-3,-4,-1,0,2
51379047698,-1,-1,1,3,-1,-2,-1,-1
51379047698,-1,0,-2,-2,-2,0,-2,-2
51379048493,-1,-1,-2,2,4,1,0,-1
51379048493,1,0,-3,-10,-7,-2,0,0
51379078632,0,-1,0,4,2,-1,-1,0
51379078632,0,-1,-2,0,-1,-2,-1,0
51379079230,-2,0,-2,-4,-7,-3,-2,0
51379079230,-1,-1,-1,2,1,0,-1,-2
51379101028,1,-1,-3,-4,-4,-1,-1,0
51379101028,-1,0,0,-1,-1,0,1,0
51379101688,-1,-1,0,-2,-2,-1,0,-3
51379101688,1,-1,0,3,2,-2,1,0
51379107696,-2,-1,1,-3,-2,0,-1,-1
51379107696,0,-2,-2,-1,-3,-2,-2,0
51379108502,-2,-1,-2,-1,0,0,-1,0
51379108502,-3,-1,-1,5,2,0,-2,-2
51379131016,-3,-1,-2,-2,1,0,0,1
51379131016,-1,4,-4,-6,-4,-1,-1,-1
51379131759,-4,1,1,5,2,-1,-1,-1
51379131759,1,-1,0,-2,-3,0,-1,-1
51379153457,-1,0,0,1,4,-2,-1,0
51379153457,1,-2,-1,-1,-2,-1,-1,0
51379154212,-1,-2,-1,-6,-7,-1,-1,-2
51379154212,-1,0,-2,-4,-4,-2,-2,0
51379167925,-1,-1,-1,1,2,0,0,-2
51379167925,-1,-3,0,-2,-1,2,-2,0
51379168598,1,0,0,2,1,-1,-2,0
51379168598,-2,-2,-2,-1,-1,-1,-1,-2
51379190959,-1,0,-1,-5,-7,-3,1,1
51379190959,-1,0,2,6,2,0,-1,0
51379191689,-1,-1,0,-1,0,-1,-1,-1
51379191689,-1,-1,-1,1,0,0,-2,-3
51379213490,3,-1,-3,-4,-2,0,0,0
51379213490,-2,-1,-1,-5,-3,-1,-1,-1
51379214311,0,-1,1,0,-2,-2,0,-2
51379214311,-1,0,1,2,1,-2,0,0
51379227973,1,1,-4,-1,0,0,-1,-4
51379227973,-2,-1,0,-1,-1,-3,-2,-1
51379228632,0,-1,-3,-1,1,1,0,1
51379228632,-2,-2,-2,-4,-3,-1,0,-1
51379250946,-1,-2,0,1,0,-1,-2,-2
51379250946,-2,-1,-2,-5,-1,-1,0,-2
51379251687,-1,-2,-1,0,-2,-1,-1,-1
51379251687,-1,0,0,1,2,-2,0,0
51379281025,-1,-1,-1,-1,-2,-1,-1,-1
51379281025,-1,-1,0,1,0,-2,-1,-1
51379281766,1,-1,0,-3,0,0,-2,-1
51379281766,0,-1,-2,-1,-1,-1,-1,-2
51379287754,-1,-2,-1,-3,-1,-1,-1,-1
51379287754,0,1,0,1,-2,-2,-1,-1
51379288536,-1,0,-4,-3,-2,-1,0,0
51379288536,0,-2,1,1,-2,1,0,-2
51379310971,-2,-1,-1,-3,0,-1,0,-2
51379310971,0,-2,-2,-1,-2,-1,0,-1
51379311733,-1,1,-1,7,-1,-2,-2,-1
51379311733,-1,0,1,0,-1,-2,-1,0
51379333524,0,-1,0,0,1,-2,0,0
51379333524,1,-2,-2,-5,0,0,0,0
51379334302,-1,1,0,-3,-2,-1,0,0
51379334302,-3,0,-3,1,0,-2,-1,0
51379355989,-2,0,-1,-3,-2,-1,-2,0
51379355989,0,0,-1,-1,-2,-2,-2,-1
51379356729,-2,-2,1,2,6,2,0,1
51379356729,-1,0,-1,-10,-16,-1,-2,-3
51379378524,-2,0,-2,-1,-2,-1,0,-1
51379378524,-2,-1,-1,2,1,0,-1,-2
51379379263,-1,-1,-1,-1,0,-3,-1,-2
51379379263,1,-1,-1,-1,1,0,-1,1
51379393553,-2,-1,-1,-1,0,0,0,0
51379393553,0,0,-2,-2,-3,-1,1,-1
51379394308,-1,-2,-2,-3,-2,-3,-1,-2
51379394308,-1,0,0,2,4,-1,-2,-1
51379416079,0,-3,1,-2,-2,-1,0,-1
51379416079,-2,0,-1,4,-1,0,-1,-1
51379416749,-1,0,-3,-6,-6,0,-1,-1
51379416749,-2,-3,0,3,5,-3,1,-1
51379431048,-2,-2,0,0,-1,0,-2,-1
51379431048,-2,0,0,-4,-2,-1,-1,-1
51379431663,0,1,-1,0,-2,-2,-1,0
51379431663,-1,-1,-2,1,2,0,-1,0
51379453414,0,-1,-3,-4,-2,-1,-1,1
51379453414,0,-2,0,-2,-4,-3,-2,1
51379454206,-1,-2,-1,-2,2,0,0,0
51379454206,0,-1,-2,3,0,0,-2,1
51379467916,0,-1,0,1,-4,0,-2,-1
51379467916,-2,-1,0,-2,-2,1,1,-1
51379468540,0,-1,0,-3,-2,-3,-3,0
51379468540,-3,0,-1,-1,2,0,0,0
51379491035,2,0,-1,-4,-3,-3,-2,0
51379491035,-1,-2,0,2,3,0,-1,0
51379491737,1,0,1,4,3,-2,-2,-2
51379491737,0,-2,-1,-3,-1,-1,-1,-3
51379513651,-1,3,-6,1,-1,-2,0,-1
51379513651,-1,-2,-3,-5,-3,-3,-1,-2
51379514286,-2,-2,1,-4,-4,-2,0,0
51379514286,2,0,1,-1,-1,-1,-1,-2
51379527911,-1,-2,1,-2,4,0,0,-2
51379527911,-2,0,-1,0,-1,-1,-1,0
51379528548,0,2,0,2,0,1,-2,2
51379528548,-1,-2,-2,-2,-5,-1,-1,1
51379558433,1,-2,0,-2,0,1,-1,0
51379558433,0,0,1,4,3,0,0,1
51379559215,-2,-2,-1,-6,-5,-2,0,0
51379559215,-1,-2,-2,-1,1,0,-1,-1
51379581131,-1,-1,0,4,4,-1,1,-2
51379581131,0,0,-3,-4,-2,-1,-1,-1
51379581778,0,-1,-3,-1,-5,0,-1,-2
51379581778,-1,0,-1,-2,0,1,-1,-1
51379587774,-2,-1,0,-1,-2,1,-2,-1
51379587774,-1,-3,-1,2,2,1,1,-3
51379588570,1,0,-1,1,0,-1,1,-2
51379588570,-1,0,0,-6,-5,-1,-1,-1
51379611077,-1,-1,-2,0,-2,1,-1,0
51379611077,0,-1,2,4,0,0,-2,-1
51379611769,-3,-2,0,1,0,-1,-2,-3
51379611769,-2,-1,-1,-2,-2,-4,0,-1
51379633516,-1,-3,-1,2,2,1,-1,-1
51379633516,0,0,-2,-4,-3,-1,1,-2
51379634304,-1,-3,-5,-4,-2,0,0,-1
51379634304,-1,-3,1,2,1,-2,0,-1
51379655860,-2,0,-1,-6,-6,-3,-2,-2
51379655860,1,1,-1,-2,-2,-3,-2,-1
51379656691,-1,-1,1,-1,3,0,-2,-1
51379656691,-1,-2,-1,-3,-2,-1,-1,0
51379671182,-1,-1,-2,-2,-4,-1,-2,-1
51379671182,0,-2,-3,-1,1,-2,0,0
51379671776,-2,0,1,3,2,-2,0,-2
51379671776,1,1,-2,-9,-10,-4,-1,-1
51379693461,-1,-2,0,2,1,1,1,-1
51379693461,-1,-2,0,-7,-7,-2,-2,-1
51379694260,-2,0,-3,-7,-1,1,-1,-2
51379694260,0,-1,0,10,6,2,-1,-1
51379707089,-1,-2,0,-3,-2,-1,-1,-1
51379707089,-3,-2,0,3,3,0,-2,-1
51379715336,0,-2,0,-2,-4,0,0,0
51379715336,-1,-1,-3,-7,-3,-1,-1,0
51379731004,-1,1,0,2,1,-1,-1,-2
51379731004,-4,-1,1,-2,-2,0,0,-1
51379731728,-1,-1,-2,-1,-4,-3,0,0
51379731728,0,-3,-2,0,-1,-1,0,-2
51379760964,0,-1,1,2,2,-2,-1,0
51379760964,-1,-2,-1,-5,-3,-2,-1,-1
51379761701,1,1,-1,-1,-2,-1,-2,-1
51379761701,0,0,-2,0,2,1,0,1
51379767157,0,-1,0,2,1,-1,0,0
51379767157,2,0,-3,-10,-11,-2,-1,0
51379782816,-1,-1,-1,0,0,-1,-1,-1
51379782816,-2,0,-1,1,0,1,-3,-3
51379791017,-1,-1,-2,0,-2,-3,-2,-1
51379791017,1,2,-3,3,3,0,-1,-1
51379791734,-1,0,0,-2,-2,-2,1,0
51379791734,-1,-1,-2,0,0,0,-1,-3
51379813474,-3,-1,0,-1,0,-2,-1,1
51379813474,-1,-2,-1,3,-1,-1,-2,-1
51379814275,-1,0,-3,0,-3,-1,-2,-2
51379814275,-3,-1,-3,-2,0,-3,-1,1
51379827253,0,-1,-1,-5,-7,-1,-2,-2
51379827253,0,-3,0,-2,1,0,0,-2
51379835381,0,-1,-1,6,-2,0,0,1
51379835381,-1,0,-1,-4,-2,-2,-2,0
51379858395,0,-1,-3,-1,0,0,-2,-1
51379858395,1,-1,0,-2,0,0,-1,-1
51379859209,-2,-1,-2,-1,1,1,-2,-2
51379859209,0,1,0,-5,-4,-2,-3,-1
51379873509,-2,-2,-1,2,-1,-1,0,-1
51379873509,-1,0,0,2,3,0,0,-1
51379874224,0,0,0,0,2,-1,-1,0
51379874224,-1,-1,0,2,-1,1,-1,-1
51379887379,1,1,-1,-4,-4,0,0,0
51379887379,-2,-1,-1,0,-2,0,-2,0
51379895371,-1,-1,-2,-1,-2,-1,0,-1
51379895371,-1,-2,1,6,4,-1,0,0
51379910963,-2,-1,0,-4,-3,0,-1,-2
51379910963,-2,-1,-2,0,0,-1,0,0
51379911750,-2,-2,-1,-1,0,1,-1,-1
51379911750,0,-1,-2,-2,-4,0,-1,-2
51379933573,-1,-1,-2,0,3,-2,-2,-1
51379933573,0,0,0,-1,-1,-2,-2,-1
51379934305,-1,-3,-1,1,1,-2,-2,0
51379934305,0,0,0,-1,-1,-1,-1,-1
51379947135,-3,1,-1,-2,-3,0,1,-1
51379947135,-3,-1,-2,-2,1,-1,0,0
51379956566,-1,2,-1,3,3,-1,-1,-2
51379956566,1,0,1,-3,0,0,0,-1
51379971132,0,-3,-2,-3,-5,-2,-1,0
51379971132,-1,-2,-2,0,0,-2,-1,0
51379971782,1,0,-2,-10,-7,-3,-1,0
51379971782,-1,-2,-3,6,-1,0,-2,1
51379993557,-2,0,-2,-5,-4,-3,-2,0
51379993557,-1,1,2,3,2,-2,-1,0
51379994276,-1,1,-5,-4,0,-1,-1,-2
51379994276,-1,0,-1,-6,-4,-2,1,-2
51380007116,0,0,0,1,0,-2,-1,-1
51380007116,-1,-2,0,-3,-3,-3,-2,-1
51380015313,-2,-1,1,1,1,0,-1,0
51380015313,-2,-1,0,0,1,-1,0,0
51380038723,-2,-1,-2,-1,0,1,-2,-2
51380038723,-1,0,-1,-1,-1,-1,-1,-1
51380040309,-2,-4,1,-2,-2,-3,0,0
51380040309,-2,0,-3,-2,-5,-2,-1,1
51380060986,1,0,-4,3,2,-2,-2,-1
51380060986,0,0,-2,-1,-2,0,0,-2
51380061754,-1,-1,0,1,3,1,0,-2
51380061754,1,1,-1,-6,-7,-2,0,0
51380076185,0,-2,1,2,3,0,0,1
51380076185,-2,1,0,0,1,-1,-1,1
51380076811,0,-1,-1,0,1,0,0,0
51380076811,-1,-1,0,-1,2,0,0,0
51380091067,0,2,-1,-3,-5,-3,-2,0
51380091067,0,-2,-2,-2,-2,-1,-1,-2
51380091793,-1,-1,-1,-1,-1,-1,0,-2
51380091793,-1,-3,0,0,3,2,-2,-2
51380113470,-1,-2,1,1,0,-1,1,-2
51380113470,0,-1,-1,-2,-2,-2,-1,-1
51380114230,0,0,0,2,-2,-1,-2,0
51380114230,0,-1,-2,0,-2,-1,-2,-2
51380136090,0,-2,-2,-1,2,1,-2,-3
51380136090,-2,-2,-1,0,0,0,-1,-2
51380137562,1,-2,1,0,-1,-1,-1,1
51380137562,0,0,-2,-2,0,-2,0,-1
51380150280,-4,-1,1,4,1,1,-2,-2
51380150280,-1,0,-2,-6,-8,-2,-1,-1
51380151069,-1,-3,-1,-2,-1,-1,-3,-1
51380151069,-2,-2,-1,0,3,0,-1,-2
51380173573,-1,-1,0,-5,-8,-3,-2,0
51380173573,-1,-1,-2,-1,2,1,-2,1
51380174298,-1,0,-2,0,-4,-1,1,0
51380174298,-1,-1,-1,4,3,-2,-2,-2
51380196011,-1,2,-4,-6,-1,0,-1,-1
51380196011,-1,-2,-1,0,3,0,0,-1
51380196762,-1,-1,-1,-4,-4,1,1,0
51380196762,-2,-2,-2,-1,-3,-1,-1,0
51380209628,0,-3,-3,-2,-2,-3,0,1
51380209628,1,3,0,5,-1,-2,-2,0
51380218582,-1,-1,0,2,4,1,-2,0
51380218582,-1,-3,-1,-7,-8,0,0,2
51380233506,-3,-1,0,-2,1,0,-1,-1
51380233506,0,-1,-1,-2,-1,0,0,-2
51380235157,-1,-3,-2,1,0,-2,0,0
51380235157,0,0,0,-3,-4,-2,-1,-2
51380263434,-1,0,0,-1,-1,0,-1,-1
51380263434,1,-2,-2,-1,0,1,-2,0
51380265057,-1,0,1,-3,-1,0,0,0
51380265057,-2,-2,0,0,-3,-5,0,-2
51380269590,1,-2,0,-5,-4,-4,0,0
51380269590,-3,0,0,5,2,-1,0,-2
51380286134,-4,-4,0,-4,-2,-1,-2,-1
51380286134,1,0,-1,0,2,-1,-2,1
51380293561,-1,-2,0,0,-1,-1,-1,-2
51380293561,-1,-1,-3,-4,-3,-2,-1,-1
51380295141,0,-1,-1,2,0,0,-2,-2
51380295141,-1,0,1,2,5,0,0,0
51380316003,0,0,-1,-2,-5,-2,-3,1
51380316003,-2,-3,0,0,0,0,0,-1
51380317623,1,1,-3,-2,-6,-4,-2,0
51380317623,-3,-1,-2,0,0,1,0,-2
51380338513,1,0,-2,1,3,1,1,-1
51380338513,-1,0,-1,-1,0,-2,0,0
51380340210,0,1,-1,-6,-5,-3,-1,-1
51380340210,-2,0,-1,-1,0,-1,0,-1
51380361065,-2,-2,-1,1,0,0,0,-1
51380361065,-1,-2,-1,1,1,0,0,0
51380364539,0,2,-3,-2,1,-1,-1,-2
51380364539,0,0,-1,0,-3,1,0,-2
51380376187,0,-2,-1,0,0,0,-1,0
51380376187,-1,-1,-1,-3,-1,-1,-1,-1
51380377856,-2,-2,-2,-3,-3,0,-2,-2
51380377856,-1,-2,0,0,0,-1,-1,-1
51380389846,-3,0,0,0,2,-1,-2,-1
51380389846,1,-1,1,-2,-1,0,-1,-1
51380415600,0,-2,1,-2,-2,-1,-2,0
51380415600,0,-3,-3,0,-1,0,1,-2
51380416422,-1,-1,0,0,0,2,1,0
51380416422,1,0,-1,-3,-3,-1,0,-1
51380419645,-1,-1,-1,-1,-1,-3,-2,-2
51380419645,1,-1,-1,0,0,-1,-2,0
51380436172,-3,-3,0,-3,-3,-2,0,-2
51380436172,-1,-1,-2,-3,-4,-2,-1,0
51380437794,1,-1,1,4,3,0,-1,-1
51380437794,-2,-2,-1,-1,-4,-1,1,0
51380449648,0,2,-4,-2,1,0,-2,-1
51380449648,-1,-1,-1,-4,-4,-2,0,-2
51380464765,0,-1,-1,-1,0,2,0,-2
51380464765,-1,1,-1,-4,0,-2,-1,0
51380473607,0,-1,1,6,2,0,0,0
51380473607,-2,-1,-1,-10,-6,-3,-1,0
51380475259,0,-1,2,12,1,1,0,-2
51380475259,0,2,-2,-3,-2,-1,-3,-2
51380496172,0,-1,0,-2,-1,-2,-1,-2
51380496172,-1,-1,-1,4,6,-1,-2,-1
51380497647,-1,-1,-2,-5,-3,0,0,0
51380497647,-1,-1,0,-4,-4,-1,0,-1
51380509632,-1,-1,-1,-1,1,0,0,-1
51380509632,1,-3,-3,-1,-3,-2,-1,0
51380518620,-1,-2,-1,-5,0,0,-1,0
51380518620,0,-1,2,4,3,1,0,0
51380541228,-2,1,-2,-1,-3,-3,0,-2
51380541228,-2,-3,0,3,1,1,-1,-2
51380542669,-1,0,-3,-3,-4,-3,-2,0
51380542669,0,-1,-2,-4,0,0,-4,1
51380555778,-1,-2,0,-1,-1,0,0,1
51380555778,-2,-1,-1,-1,-1,1,0,-1
51380562099,-1,-1,-1,-3,-1,-2,0,1
51380562099,-1,-1,0,1,0,-1,-3,-1
51380569586,-2,0,-2,-1,-4,-1,-1,-1
51380569586,-4,-2,1,0,-1,-2,0,1
51380578746,-1,-2,0,-2,-3,1,0,-1
51380578746,-1,-2,-4,-6,-2,-1,0,-1
51380593694,1,-2,-1,11,8,0,-1,-1
51380593694,0,-1,-1,-6,-10,-1,-1,-2
51380595249,-1,-1,0,1,0,-2,-2,-2
51380595249,-2,0,0,0,-1,-2,1,-1
51380615984,3,0,-1,-6,-6,-3,-2,1
51380615984,0,1,-1,2,2,-1,-1,-1
51380617589,-1,-2,-1,1,1,0,0,-1
51380617589,-2,-2,0,-2,-1,-1,-1,-2
51380629844,-1,-1,-2,-2,-3,-3,-2,-2
51380629844,0,1,0,2,-1,1,-1,-1
51380638628,2,3,-4,-4,-2,-1,-1,-1
51380638628,-2,-1,2,6,1,0,1,1
51380653479,-2,-2,0,-1,0,1,0,-1
51380653479,-1,-2,-1,0,0,-2,0,0
51380655087,-2,-2,-1,-2,2,-1,0,-2
51380655087,0,-2,-2,-3,-6,-2,-2,-1
51380676085,-2,-1,0,-1,0,0,-1,0
51380676085,1,-2,-3,-3,-2,-2,0,0
51380677632,-1,-2,-2,-3,-1,-2,0,-2
51380677632,-1,0,-1,0,1,-2,-1,1
51380689739,-2,-1,0,-3,-3,-2,-1,-2
51380689739,0,0,1,5,1,-1,-1,-1
51380698653,-1,0,1,3,0,-1,1,-2
51380698653,0,0,-2,-1,-2,-1,-1,-2
51380713476,0,-1,0,-2,0,-2,0,0
51380713476,-2,-1,-3,-4,0,0,-1,-2
51380715084,0,-1,0,-1,-1,-1,0,1
51380715084,-1,0,-1,-1,0,-2,0,-2
51380736169,-1,0,-1,-1,-3,0,-4,-2
51380736169,-1,0,-2,-2,-1,0,-1,-1
51380737716,-1,0,-1,4,-3,-1,-1,2
51380737716,0,-1,-2,-1,0,1,-3,0
51380749675,0,-1,0,2,0,-2,-2,-1
51380749675,0,-1,0,-3,-2,-2,-1,1
51380759273,-1,-1,-1,-3,-2,0,0,-2
51380759273,-1,-2,-1,-3,-5,0,0,-2
51380773498,-1,-2,-1,1,2,1,0,0
51380773498,-1,-1,0,2,0,-1,-2,-1
51380775099,-3,-1,-3,-4,-5,-2,0,0
51380775099,0,-1,0,2,-1,-3,0,-1
51380795999,1,-2,1,1,2,2,-2,0
51380795999,-2,-1,-1,0,1,-1,0,-3
51380819154,0,-1,-1,-5,-1,-2,-2,0
51380819154,0,0,-3,-1,-3,-1,0,-1
51380819937,-2,-2,-1,-5,-1,-2,0,-1
51380819937,-1,1,2,5,4,1,0,0
51380821568,-2,-1,-2,-4,-5,0,-1,0
51380821568,-1,-2,-1,0,1,-1,-1,-1
51380833523,-1,0,0,-3,0,0,0,0
51380833523,0,-1,-1,1,-1,-2,-1,0
51380841194,0,0,-1,-2,2,-1,-1,-3
51380841194,-2,1,-1,-2,-3,0,-2,-1
51380856013,0,0,-2,-1,-1,0,-1,-1
51380856013,-3,-2,-1,-3,-2,-1,-1,0
51380857625,0,-1,0,1,-2,1,-1,0
51380857625,1,0,0,5,3,2,-1,-1
51380870033,0,0,-2,-2,-3,-2,-1,-1
51380870033,-1,-1,-2,-2,-3,0,0,0
51380878737,0,-2,1,-1,0,-1,-2,-2
51380878737,-1,-1,0,-3,-1,-2,-1,-1
51380893590,0,-2,1,2,1,0,-2,-1
51380893590,-1,0,0,1,1,-1,-1,-1
51380895283,-1,-1,-2,-2,0,-2,0,-1
51380895283,-1,-1,0,-4,-3,-2,-1,-1
51380915994,-2,1,-1,5,1,0,-1,-2
51380915994,-2,-2,-3,-4,-3,-2,-2,0
51380917587,-2,-1,-1,2,1,-1,-2,-1
51380917587,-2,0,-1,-2,0,1,0,0
51380929702,-1,-2,-2,-2,-1,-1,0,0
51380929702,2,1,-2,-4,-4,0,0,-1
51380938653,-1,-2,0,2,1,0,-1,-1
51380938653,-2,-2,-1,-5,-4,-1,-2,0
51380953728,-1,0,0,-3,-1,-2,-1,-2
51380953728,1,-1,-2,-2,0,0,-1,-2
51380955120,0,0,1,0,-1,-1,-1,-2
51380955120,-1,0,0,1,2,-1,0,-2
51380975943,-1,-3,-1,-2,-4,0,0,0
51380975943,-2,-2,-1,-6,-3,-2,0,-1
51380977585,1,3,-1,5,1,-1,-1,0
51380977585,1,-2,-1,1,0,-1,-1,1
51380998697,-2,-2,-2,-4,-3,-1,0,-1
51380998697,1,-2,0,-1,-1,-2,-3,0
51381000279,-3,-3,-2,-3,-5,-1,-2,-1
51381000279,-2,-1,-1,2,2,0,0,-3
51381014175,1,1,1,4,0,-2,-1,-1
51381014175,0,-1,-2,0,-1,0,-2,-2
51381015747,-3,-1,0,2,2,0,1,0
51381015747,0,-2,-2,-4,-4,-1,-1,-1
51381043577,0,2,-4,-3,-2,-2,-1,-2
51381043577,-1,0,-1,1,1,-3,0,0
51381045201,-1,-2,-1,-2,-1,0,-1,0
51381045201,-1,1,-1,1,-4,-2,-1,0
51381058507,-2,-2,0,-2,0,1,0,0
51381058507,-1,-3,0,0,-1,1,-1,-1
51381060132,-1,-1,-2,1,0,-2,0,0
51381060132,1,-1,-1,-1,0,-1,0,-2
51381074007,-1,-1,1,-2,-4,-2,-1,0
51381074007,-1,-1,-2,-3,-2,-1,-1,-2
51381079635,-1,-3,0,1,0,0,-1,-1
51381079635,-1,-3,2,-1,-3,0,0,0
51381096195,0,-1,-1,-1,-2,0,-1,-1
51381096195,-1,-2,0,0,0,-1,-1,-1
51381097596,1,-1,-3,-3,0,1,-2,0
51381097596,-1,-1,-1,0,1,0,-2,0
51381118499,-1,-2,-2,-5,1,-2,-2,-1
51381118499,-1,-1,-1,4,-4,0,0,0
51381120088,1,-2,1,-2,-5,-2,0,-1
51381120088,-2,-4,0,-6,-5,-1,0,-2
51381132818,-1,-2,-1,1,4,1,0,1
51381132818,0,0,0,0,-3,0,-1,-1
51381139724,-1,0,-2,-2,0,0,-2,0
51381139724,-1,0,-1,-1,1,1,-2,-2
51381156010,-1,-1,-2,-1,-3,0,0,0
51381156010,-2,0,0,-1,1,-1,0,-1
51381157676,-1,-1,-1,-1,-3,-2,-1,-1
51381157676,1,-2,-1,3,3,-3,-2,-1
51381178541,-1,0,0,3,-1,1,0,-1
51381178541,-1,0,-2,-3,-1,-1,-2,-1
51381180155,-1,-2,-1,-4,-3,1,0,-1
51381180155,1,1,1,2,2,-1,0,-1
51381193048,-3,-3,-1,-7,-7,-2,-1,-1
51381193048,1,-1,2,3,-1,-1,-2,1
51381199687,0,0,1,-3,-1,-2,-1,0
51381199687,-2,1,-3,1,2,0,-1,-1
51381215856,0,-1,-2,-1,-1,-2,0,-1
51381215856,0,1,-4,-2,-4,-1,-1,-1
51381223676,-1,-3,-2,-3,-3,0,-1,0
51381223676,-1,-3,0,5,3,0,0,0
51381246075,-1,-1,-2,-3,-3,0,-1,0
51381246075,-1,-1,1,-2,-1,-1,-1,-1
51381247670,0,0,0,1,-2,-2,-2,-1
51381247670,-1,1,-3,-4,0,-1,-1,0
51381253045,-1,-2,-1,-5,-7,-1,-2,-1
51381253045,0,1,-1,2,4,-2,-1,-1
51381259691,-3,-1,0,1,2,0,-1,-1
51381259691,-1,-2,2,-7,-1,1,1,-1
51381276310,-2,-2,0,6,4,0,1,-1
51381276310,0,-1,-5,-8,-8,-1,0,-1
51381278044,-2,-1,0,-2,-2,0,0,-2
51381278044,1,1,-2,0,-1,-1,-2,-1
51381298763,-2,-2,-1,0,-1,0,-2,-1
51381298763,-2,-1,-1,-1,0,-1,0,0
51381300273,0,-1,-1,1,2,-1,1,-1
51381300273,-3,-1,-2,-3,-3,0,0,0
51381312157,1,-2,0,-1,-5,-3,-2,-2
51381312157,-1,0,-2,3,4,-2,-1,-3
51381321137,0,0,-2,1,-2,-1,-1,-1
51381321137,0,0,-2,-1,0,0,-1,0
51381336211,-1,2,-1,-2,-2,-1,-1,-1
51381336211,-1,-3,1,-1,2,-2,-1,-1
51381337835,-2,-2,-3,-1,2,-3,-1,-1
51381337835,0,-1,-3,-6,-9,-3,-2,-1
51381358686,1,0,-1,4,2,0,-1,-1
51381358686,0,-1,1,0,1,0,0,-2
51381360106,-2,0,0,-5,-5,-1,-3,0
51381360106,-1,-1,-1,4,2,0,-2,-1
51381372139,-1,-1,-2,-5,-4,0,0,0
51381372139,0,-2,0,1,0,2,-1,0
51381381154,2,2,-3,-1,-1,-1,1,0
51381381154,-1,-3,0,-4,-4,0,-1,-3
51381396218,-1,-1,-1,3,1,-2,-1,0
51381396218,-2,-2,1,3,3,0,-1,0
51381397692,-2,-2,0,-2,-3,0,-1,-1
51381397692,1,1,-3,-1,-4,-2,-2,-1
51381418338,-1,-2,-3,-2,-2,-2,0,-1
51381418338,-2,-2,-1,-2,-5,-2,-2,0
51381424611,-1,-2,1,1,0,-1,-1,0
51381424611,0,-1,0,1,2,-1,0,-2
51381432169,0,-2,0,-2,1,-1,0,-1
51381432169,2,0,-3,-2,-4,-1,0,-1
51381448685,0,0,0,0,-1,-1,-1,-1
51381448685,-2,-2,0,3,2,-1,0,0
51381456247,0,1,1,-3,-2,-2,-1,0
51381456247,0,-1,-2,-4,-4,-1,-1,0
51381457652,1,-2,0,2,0,0,-2,-1
51381457652,-1,-1,0,-1,-2,-1,0,-1
51381478657,-1,0,-1,4,2,-1,-2,-1
51381478657,-1,-3,-1,0,1,-1,-1,-3
51381480358,-2,-2,-1,-3,-2,-2,1,-1
51381480358,-2,-3,-1,1,-1,0,-1,0
51381501133,-1,1,-3,0,-1,-2,-2,0
51381501133,-2,-2,0,0,1,0,0,-1
51381502617,-3,-2,-1,-4,-6,-2,-3,-1
51381502617,0,-2,-3,-4,-7,-1,-1,-2
51381523533,0,-1,-1,3,0,-1,-2,-1
51381523533,-1,0,-3,-1,-1,0,0,-1
51381525133,-1,-2,-1,-1,1,0,-1,-2
51381525133,0,1,-1,3,0,-2,-2,-1
51381538687,1,-1,-1,-3,-3,0,0,-1
51381538687,0,-1,0,1,3,1,0,0
51381540202,-1,-3,1,2,-2,0,-1,-2
51381540202,-1,-1,-1,-8,-3,-2,-3,0
51381552251,-3,-2,0,-3,0,-2,0,1
51381552251,-2,1,1,0,-5,-1,0,-1
51381561177,-1,0,-2,-1,0,-1,-1,-1
51381561177,-1,-3,1,3,1,-1,0,-2
51381576820,-1,-3,0,-2,3,1,0,-1
51381576820,1,1,0,1,-2,-2,0,-1
51381580304,1,-1,-2,2,3,-2,-3,-1
51381580304,-1,-2,1,-2,0,0,0,-1
51381599076,0,-1,-2,-1,-1,-1,-2,-2
51381599076,-1,-2,-1,-3,-2,0,-2,-1
51381600609,-1,-1,-2,-1,-2,-2,0,0
51381600609,0,1,-1,2,0,-1,-1,0
51381612232,-1,-1,-1,1,0,1,0,-2
51381612232,-1,-1,-2,-5,-2,-2,-1,1
51381621169,-2,1,4,6,5,-1,-1,0
51381621169,-1,-2,-2,-2,-2,0,-2,-2
51381636056,1,0,0,-1,0,-2,-1,-2
51381636056,-1,-3,-2,-3,-8,0,-1,-2
51381637806,0,-1,-1,-1,0,0,-1,0
51381637806,-3,1,-1,1,0,1,1,0
51381658626,-1,0,1,1,-5,-4,-1,-1
51381658626,0,2,-4,0,-2,-2,-3,-1
51381660211,-2,-1,-3,-3,-2,0,-1,-1
51381660211,0,-1,-2,0,-2,-3,-1,-1
51381672194,1,-1,-2,-3,-3,2,-2,0
51381672194,-1,-1,0,0,2,0,0,-1
51381681108,0,-1,-3,-3,-6,-1,1,-1
51381681108,1,-1,-2,0,3,-1,0,0
51381695142,-1,-2,0,-1,-4,-3,1,0
51381695142,1,-1,-1,-2,-2,-2,-1,-2
51381703822,-2,-1,-1,-2,0,0,0,-1
51381703822,-1,1,-1,-2,0,-1,-2,-1
51381725989,-2,-1,-1,-3,-3,-2,-1,-2
51381725989,-3,0,0,8,7,0,0,0
51381727625,-1,0,-1,-6,-8,-1,-2,0
51381727625,-1,-2,1,0,-2,-3,-1,-1
51381732146,0,-1,-2,-3,-2,-1,-1,-1
51381732146,1,1,-3,-2,-2,-3,-3,0
51381748728,-1,-1,-1,-1,3,1,0,-3
51381748728,-1,1,0,4,-3,0,-1,-2
51381755887,-2,-1,-1,-1,-3,-1,-3,-1
51381755887,-2,-2,-1,-2,0,1,1,1
51381762242,0,-1,-3,0,-3,-1,0,-1
51381762242,0,-1,-4,-5,1,0,0,-1
51381780188,-2,0,-1,2,4,0,-1,1
51381780188,0,-4,-1,-1,-2,0,-1,0
51381782866,0,0,0,-2,-3,-1,-3,-1
51381782866,-3,-1,-2,-3,-1,0,0,0
51381801177,-1,-2,-2,1,1,2,0,-1
51381801177,-3,-3,1,0,-1,-1,-2,-1
51381802715,1,-1,-1,1,3,0,1,1
51381802715,0,-2,0,-3,-7,-2,-3,-1
51381816067,1,1,-2,-1,0,0,0,-2
51381816067,1,-1,-2,-6,-6,-1,-2,0
51381817675,0,-2,1,0,0,-1,-1,-1
51381817675,1,-1,0,0,3,1,-1,0
51381838621,-2,-1,-1,-1,-4,0,-1,-1
51381838621,-1,-2,-1,0,0,-1,0,-3
51381840146,-3,-1,-2,-1,-1,-2,-1,-1
51381840146,-1,-1,-2,-3,0,-2,0,-3
51381852894,0,-1,-2,-2,0,1,0,0
51381852894,-1,-2,-1,6,5,-2,-1,-2
51381861172,-2,-3,-1,-4,-9,-2,-1,-2
51381861172,0,0,2,4,-1,-1,-2,-1
51381875968,-1,-2,-1,-4,-2,0,0,-1
51381875968,-2,0,-2,-4,-2,-1,-1,0
51381877704,-1,0,-1,2,-1,-2,-1,-1
51381877704,-1,-1,-3,-1,0,0,-2,-1
51381898653,-2,-1,-1,-4,-7,-3,-1,-1
51381898653,2,2,-3,-4,-2,-1,0,-1
51381900178,-2,0,1,0,1,0,-1,-1
51381900178,-1,0,-1,-1,-2,1,0,0
51381928524,-2,1,0,2,3,-2,-1,0
51381928524,0,-1,-2,-3,1,0,-2,-2
51381930164,1,-1,-3,2,-4,-2,0,0
51381930164,-1,-1,-1,-1,-1,-1,1,-2
51381936062,0,-1,-1,0,2,0,-2,1
51381936062,-1,-2,1,1,-1,-2,0,0
51381937653,-1,0,-1,-1,4,1,-2,-1
51381937653,-1,-2,-3,-5,-5,-1,0,0
51381958720,1,0,-2,0,1,-3,0,-2
51381958720,-2,-2,-1,2,-1,0,0,-2
51381960208,0,1,-3,-4,-6,-3,-2,-2
51381960208,-1,-1,-1,-4,-5,-1,-1,2
51381981935,-2,0,-1,-2,-2,-1,-1,-2
51381981935,-3,0,-1,-1,0,-1,-1,0
51381983634,0,0,0,1,1,1,0,0
51381983634,-1,-1,-2,-6,2,1,0,-1
51382003532,1,0,-2,12,0,-1,0,-1
51382003532,-1,-2,1,1,0,-1,0,-2
51382005146,1,0,1,-2,-1,0,-1,1
51382005146,-1,1,-1,-2,-3,-2,-3,0
51382026065,-2,-3,-2,-6,0,0,-1,1
51382026065,0,-1,0,5,1,-1,-1,1
51382027703,-1,-2,-1,-1,-1,-3,-1,-1
51382027703,0,0,0,0,-1,-1,-1,-1
51382041050,-2,-2,-1,0,0,-2,-1,-3
51382041050,0,0,-2,-4,-4,-2,-1,-1
51382042686,-3,-3,-2,-4,0,-2,-1,0
51382042686,-1,-3,-1,5,3,2,0,-2
51382055560,-1,-1,1,-2,0,-1,-3,0
51382055560,-1,-1,-3,-4,-4,-3,-1,-2
51382062300,1,-1,-2,1,-2,-1,-2,-2
51382062300,-1,0,0,1,1,-3,0,-3
51382078518,0,3,-4,-1,-2,-1,0,-2
51382078518,-2,-4,-1,-4,-2,2,-2,-2
51382081128,0,0,-2,1,-1,-2,-1,-1
51382081128,-1,-4,-2,-3,-5,-3,0,-1
51382101124,0,-3,-1,-1,0,-1,-1,-1
51382101124,-1,0,-1,-4,-4,0,-1,-1
51382102689,-1,0,0,2,1,1,0,-1
51382102689,0,0,-1,6,-1,0,-2,1
51382115475,-2,0,0,0,-1,-2,-2,0
51382115475,-1,1,-1,-2,-2,-1,0,0
51382129651,-1,-2,-2,-5,-1,0,1,0
51382129651,-1,-1,1,4,3,-1,-1,0
51382153605,1,-2,-1,0,-2,-1,-2,-1
51382153605,0,-1,-1,1,-1,-2,-1,0
51382155294,-3,-1,-1,-2,1,-2,-2,-1
51382155294,-2,-1,-1,-1,1,-2,0,-1
51382161128,-3,-2,-2,-1,-1,1,1,-2
51382161128,-1,0,-1,-5,-6,-2,-1,-2
51382162834,-2,1,1,2,2,0,0,-2
51382162834,0,-1,-1,-5,-4,-3,-1,-1
51382175401,-1,-1,0,-1,-2,-2,-2,1
51382175401,-2,-1,-2,-3,-3,-1,0,-1
51382183243,-2,0,0,0,-3,-2,-1,-2
51382183243,1,-1,0,0,1,-2,1,-1
51382206240,0,-2,0,-3,-4,1,-1,0
51382206240,-1,-3,0,4,4,0,-2,-2
51382207855,1,-2,0,1,0,-2,0,-1
51382207855,-2,-1,-2,-1,1,0,-1,-1
51382228556,-1,0,-1,-1,-1,-1,-1,-1
51382228556,0,-2,-1,0,1,-3,-1,0
51382230159,-1,-2,-2,-2,-1,1,-1,-1
51382230159,-1,0,-1,0,1,-1,-1,-2
51382235347,-1,-1,-1,2,-1,-2,3,0
51382235347,-2,0,-1,0,0,0,-2,-1
51382242208,-1,0,0,1,2,0,-2,-2
51382242208,1,2,-3,-4,-5,-1,-2,0
51382258703,-1,-2,0,-2,-2,-2,-2,-2
51382258703,-1,-1,1,0,1,0,0,0
51382260145,0,-1,-1,-2,0,0,-1,-2
51382260145,1,0,-1,1,2,-2,-1,0
51382281961,-2,-3,-1,-3,2,1,0,-2
51382281961,0,0,1,5,0,-1,-1,0
51382285355,-1,0,-2,-5,-6,-2,-1,0
51382285355,-1,0,1,6,3,2,-1,-1
51382303574,-2,-1,-3,-4,-5,-1,-1,-2
51382303574,-1,0,-2,-2,-1,1,-1,0
51382305145,-1,0,-2,1,-1,-1,-1,1
51382305145,0,0,-1,-3,-3,-2,-2,-1
51382318636,-1,1,1,0,0,-3,-2,-2
51382318636,-1,-1,-1,-5,-4,-2,-2,-1
51382320203,2,-1,0,-1,-1,-1,0,0
51382320203,-1,-1,-2,-1,-2,-1,0,-1
51382349221,0,-2,0,0,3,-1,-1,-1
51382349221,1,-1,0,-1,0,-1,-2,-1
51382357661,-2,-3,0,-2,-1,-1,0,0
51382357661,0,-1,-3,-3,0,0,0,-1
51382358434,-1,-1,-3,-2,0,0,1,0
51382358434,0,0,-2,0,-3,-3,-1,0
51382362157,-1,0,-2,-1,-1,-2,-2,-1
51382362157,-1,0,-1,-5,-4,-2,-2,-1
51382378516,-1,-1,-1,1,0,0,0,0
51382378516,-2,0,-2,-4,3,-1,0,-1
51382380117,-2,0,-2,0,0,0,0,0
51382380117,-3,-3,-2,-2,-3,-2,-2,0
51382408569,1,0,1,3,1,0,-1,-2
51382408569,-1,-2,-2,-2,0,-1,-1,-3
51382410175,0,-2,-2,-3,-1,-1,-2,-1
51382410175,-1,-2,-1,-3,-1,-1,0,0
51382414762,-1,-1,-1,-4,-5,-4,-1,0
51382414762,-2,-2,0,1,1,0,1,-2
51382431133,-1,-1,-1,-1,0,-3,-2,-3
51382431133,-2,-2,0,3,-3,-2,-2,-1
51382438514,0,0,-1,-3,-1,-2,-1,-1
51382438514,0,-1,0,-2,0,-1,1,-1
51382440135,-2,0,0,-3,-3,0,-2,-1
51382440135,0,1,-3,-4,-3,0,0,-1
51382460249,-3,-2,-2,1,-1,0,-2,-1
51382460249,-1,0,-3,-8,-1,-4,-2,0
51382468789,1,-2,1,5,-2,-1,0,-1
51382468789,-1,-2,4,5,3,0,-1,-2
51382484043,-2,0,-2,-1,-1,-1,-1,0
51382484043,-1,0,-2,0,0,0,0,0
51382487520,-2,-1,-3,-4,-1,-1,0,-1
51382487520,0,-2,-1,-6,-6,-2,-2,1
51382506228,0,-2,-2,-1,1,-1,-1,-1
51382506228,-1,0,-1,-3,-4,-1,-2,-1
51382507706,0,-1,-1,2,-1,0,-1,-1
51382507706,0,-1,0,0,0,0,0,-1
51382521110,-1,0,-2,-2,-2,0,-1,-1
51382521110,0,-1,-3,2,2,-1,-2,-2
51382522685,-2,-1,0,-4,-7,-2,0,-1
51382522685,-2,-1,-1,-3,0,0,-1,-3
51382534680,-1,-1,0,2,-1,-1,0,1
51382534680,-2,-1,1,-1,-3,-2,-2,-2
51382543725,-1,-1,0,-2,0,-1,-2,1
51382543725,-2,-3,0,0,-2,-2,-4,1
51382558730,-1,0,-2,3,4,0,0,-2
51382558730,1,-1,-1,1,-3,-2,-2,0
51382560241,1,0,-2,1,1,1,-1,-1
51382560241,0,1,-2,-3,3,2,0,-1
51382581020,1,-2,2,-4,-6,0,-2,-3
51382581020,-1,0,-1,-2,-2,-2,0,-1
51382582631,-3,-2,-1,0,2,0,-1,-2
51382582631,-2,0,-3,-3,0,-1,1,-2
51382594703,-1,-1,-2,-3,-4,-1,-1,0
51382594703,1,1,-2,1,1,0,-1,0
51382611273,-1,0,-1,-2,-2,-1,-2,-1
51382611273,-2,-2,-2,1,-4,-4,-1,-1
51382618742,0,0,0,1,1,-1,0,-1
51382618742,-3,-2,-1,-3,-3,-1,-1,-2
51382620236,1,0,-1,5,4,1,-1,0
51382620236,-1,-1,-2,3,5,-1,-1,-1
51382641047,0,0,-3,-10,-11,-3,-2,-1
51382641047,-1,-2,1,6,2,1,0,1
51382642657,0,0,-3,-4,-4,-2,-1,-2
51382642657,0,0,-1,0,-1,-2,1,-1
51382654956,0,-2,-1,2,0,0,0,1
51382654956,-1,-2,1,2,2,0,0,-2
51382663734,1,0,-2,-4,-4,-3,-1,-2
51382663734,-1,0,-1,1,2,1,-1,1
51382677659,0,-1,-1,-6,-2,-2,-2,-1
51382677659,-2,-1,-1,-1,-3,1,-1,-1
51382686167,-2,-1,-1,4,3,0,0,-2
51382686167,-1,-2,-1,0,-3,0,-1,-2
51382708707,-2,-1,-1,4,3,0,0,-1
51382708707,0,-1,-2,-4,-4,0,0,1
51382710261,-2,-2,-2,-2,-3,-3,-1,-1
51382710261,0,-1,-2,-4,-1,-1,0,-2
51382714719,-1,0,0,3,4,-1,0,0
51382714719,-1,0,1,-2,-9,-1,1,-1
51382723720,0,-1,-1,1,1,-1,-1,-2
51382723720,-1,-1,0,-1,-1,-1,-2,-1
51382738610,-1,0,-2,-3,-3,-3,-2,-2
51382738610,0,-2,-2,-2,1,-2,-2,-1
51382740164,-2,0,-2,-1,0,-2,-2,0
51382740164,1,-1,-1,1,-1,0,-2,0
51382761041,-3,-1,0,1,3,0,-1,-1
51382761041,-2,-1,-5,-8,-6,-3,-1,-1
51382762662,0,-2,1,3,1,1,0,-2
51382762662,-1,-2,0,0,-1,-2,-2,0
51382783606,-1,-1,-3,-5,-3,-2,-2,-1
51382783606,0,0,0,6,6,-1,-2,-1
51382785178,-2,-2,0,-5,-8,-2,-1,-2
51382785178,-2,0,-2,-3,2,0,0,-3
51382798706,1,-1,-1,-1,-2,-1,-1,-2
51382798706,-1,-1,0,-1,0,-3,-2,-1
51382800265,-2,-1,-2,-6,-4,-2,-1,0
51382800265,1,-2,0,3,0,-2,-1,-4
51382821219,-2,0,-2,-3,-3,-1,-1,-2
51382821219,0,-1,-1,-1,0,-2,-1,-1
51382822759,1,-1,1,-1,3,1,0,-1
51382822759,-1,-1,0,-3,-6,-2,-2,0
51382843587,1,-2,-1,4,-1,0,0,-2
51382843587,-2,-1,-3,-4,1,-1,-1,-1
51382845188,-1,-1,-2,-1,-4,2,0,-1
51382845188,-3,0,1,-5,-5,0,0,-2
51382858587,-1,-1,-1,5,2,-3,-2,-2
51382858587,-1,0,-1,0,2,-2,-2,-1
51382860212,1,-1,-3,-1,2,-2,-2,-1
51382860212,0,0,-5,-4,-1,0,-2,1
51382888535,0,0,-1,-1,0,-1,-1,-1
51382888535,-1,0,0,0,3,0,0,-1
51382890178,0,1,0,-4,-3,-2,-1,0
51382890178,-1,1,0,2,1,0,0,-2
51382911221,-1,-1,-2,-2,-1,-1,-1,1
51382911221,0,-2,-1,2,0,2,-1,0
51382912855,-1,-1,-1,-6,-5,-2,0,-1
51382912855,-1,-2,-2,-2,2,1,0,0
51382918702,-2,1,2,-1,-6,-5,0,0
51382918702,-1,1,-1,-4,-2,-1,-1,0
51382920228,-1,-2,0,4,4,-2,-3,-2
51382920228,-2,-2,-1,-3,-4,-3,-1,-2
51382941091,0,-1,-2,-2,-1,2,0,-1
51382941091,-2,-1,0,-2,-1,0,0,0
51382942632,0,-1,0,0,0,0,-1,-1
51382942632,-1,0,0,-1,-4,-2,-1,0
51382963620,0,0,-1,-5,2,1,-1,-1
51382963620,-2,-2,0,2,-4,-3,0,-2
51382971281,-1,-3,-1,-2,-3,-1,0,-2
51382971281,0,-2,-1,0,1,-2,0,1
51382986063,-2,0,-3,-7,-4,-1,0,0
51382986063,-1,-1,0,5,-3,-3,-1,-3
51382987635,-1,2,-1,4,0,-1,-1,-1
51382987635,0,0,-1,-1,-2,-3,0,0
51383001086,-1,-2,-2,-3,0,-2,-1,-2
51383001086,-1,0,1,1,3,1,-2,-1
51383002638,-1,-2,-1,0,1,0,0,1
51383002638,-1,0,0,2,1,0,-2,-1
51383023766,-1,0,-1,-1,-1,-1,-1,-1
51383023766,-1,-1,-2,-5,-4,0,-1,-1
51383025286,-1,0,-2,0,1,-2,0,0
51383025286,0,-2,-4,-2,-3,0,-1,-1
51383037920,-1,-2,-1,9,6,-2,-2,0
51383037920,-1,-2,-3,-11,-10,-2,-2,0
51383044708,-1,0,3,10,5,0,-1,-1
51383044708,0,0,-1,-4,1,1,0,-1
51383061556,-1,0,1,7,4,-1,-1,1
51383061556,0,-1,-2,-1,0,-2,-2,-2
51383063185,-2,-2,-3,-5,0,0,-1,-2
51383063185,-3,-1,0,-2,-4,-3,-1,-3
51383083637,-1,1,0,1,-2,1,0,-1
51383083637,1,-1,-1,-1,2,-1,-1,-1
51383085190,-1,-1,-1,-6,-3,0,0,0
51383085190,-1,0,2,7,10,3,2,1
51383097951,0,0,-3,-1,-4,-2,1,1
51383097951,-1,-3,-4,-5,-14,-12,-6,-3
51383112419,-2,-1,-3,-9,-4,-4,-1,-1
51383112419,-3,-3,0,7,-3,-1,-4,-1
51383121235,0,-2,3,3,3,2,-1,-2
51383121235,0,2,2,3,6,3,3,0
51383122705,-1,-1,2,0,-3,-1,0,-1
51383122705,0,2,0,1,6,-1,0,0
51383143551,-1,-2,-4,-2,7,1,-1,0
51383143551,-1,-3,-2,-20,-29,-4,-2,-1
51383145130,0,-2,-1,2,-1,0,-1,-2
51383145130,-1,-2,0,-1,-3,1,1,0
51383166110,-1,0,0,2,0,0,-1,-1
51383166110,0,1,1,8,12,4,0,-2
51383167680,0,-2,-4,-4,0,0,-1,0
51383167680,-1,0,-3,-4,-7,-5,-2,0
51383188606,-2,-4,-4,-5,-5,-2,-2,-4
51383188606,-2,-1,4,9,2,-5,-1,0
51383190156,1,1,-3,-1,2,-1,0,-1
51383190156,0,0,3,6,4,0,-1,0
51383203547,-1,1,-6,-9,-5,-2,1,-2
51383203547,0,-2,-10,-8,2,1,2,3
51383205165,-1,-1,8,9,-5,-6,-4,-2
51383205165,-2,-1,-1,-9,-8,-4,-2,-1
51383217966,1,-1,-6,-12,-5,1,-1,1
51383217966,0,1,4,6,7,3,0,-1
51383224797,-1,0,-2,-2,2,-1,-1,-1
51383224797,0,3,5,6,4,-2,-1,0
51383241104,-3,-3,6,4,-6,0,-1,-1
51383241104,-1,-2,-16,-6,-4,-3,-2,-1
51383242701,-2,-1,-2,0,-1,0,-3,-1
51383242701,0,-2,-2,-3,-3,-1,0,-3
51383263746,-1,-2,-2,-2,1,-1,2,0
51383263746,-2,-1,5,8,9,3,-1,-1
51383265385,-1,0,6,12,-3,-2,-1,0
51383265385,-2,-5,-18,-19,-6,-1,-1,-1
51383278021,0,6,3,-3,-2,-1,1,0
51383278021,-1,-9,-8,2,3,1,1,-3
51383284775,-1,0,1,-2,-7,-3,-1,-2
51383284775,0,0,10,1,2,3,-1,0
51383301028,-1,-1,2,4,7,1,-1,-1
51383301028,0,1,-3,-5,5,3,1,2
51383302627,-2,-1,3,2,-3,-5,-3,-1
51383302627,-4,-4,-14,-8,-20,-10,-4,-3
51383323803,-2,-1,-4,-2,-4,-5,-2,-2
51383323803,-1,-1,3,8,0,1,0,-1
51383325214,0,-3,-6,-4,11,7,1,0
51383325214,-1,1,7,3,5,3,1,0
51383337295,0,0,2,4,-2,-2,-5,0
51383337295,-2,1,1,-4,0,-1,-3,-2
51383346185,0,-2,-9,-14,-6,-2,-1,-2
51383346185,-1,-3,-8,-10,0,0,-1,-1
51383368737,-2,-1,2,7,0,-3,0,-1
51383368737,-1,1,4,2,-2,-1,-1,-2
51383370269,0,-1,-1,-2,2,0,1,1
51383370269,0,-2,0,3,-10,-6,-2,-1
51383391102,1,0,0,-5,5,3,0,-1
51383391102,-2,-1,-11,-7,-10,-1,0,0
51383392636,-1,0,0,-1,-1,0,-1,-1
51383392636,1,0,-6,1,8,3,0,-1
51383397167,-1,-1,13,2,-5,-3,-2,-1
51383397167,0,1,4,1,2,-3,0,0
51383413722,-1,-2,-4,-8,-1,2,0,1
51383413722,-1,-3,-3,4,3,-1,0,0
51383421266,1,-2,1,8,0,-1,-1,-2
51383421266,0,-4,4,-3,-2,-2,0,-1
51383422735,-1,-2,-3,-11,-7,-2,0,-3
51383422735,-1,1,-1,7,6,1,-2,-1
51383443600,-2,-2,1,6,-2,1,1,-2
51383443600,-1,1,-3,-12,-13,-5,-4,-2
51383445163,0,-2,-7,-2,-4,-1,-2,-3
51383445163,0,-1,6,7,2,-4,1,-1
51383466136,-3,-1,-6,-5,0,0,-2,-1
51383466136,-1,1,3,6,4,0,-1,0
51383467661,-1,-1,2,5,5,2,0,0
51383467661,-2,1,-4,-13,-5,1,-1,0
51383481144,0,-3,-4,-1,-1,-3,-2,-1
51383481144,-1,-3,1,6,4,-2,-2,-2
51383482704,-1,0,-1,-2,-2,0,3,1
51383482704,0,-1,4,5,-3,1,0,0
51383503517,-1,-2,-9,-9,-4,-2,1,-2
51383503517,-2,0,2,-1,-3,-4,-2,-1
51383505137,-3,-1,1,7,11,4,-1,0
51383505137,-1,0,0,-2,-6,-3,0,1
51383517382,-3,-3,-3,-10,-3,-2,-3,-2
51383517382,1,-1,-1,7,-6,-3,-2,-2
51383526266,-1,-2,0,0,-1,-2,-1,-2
51383526266,-1,0,5,1,6,3,2,0
51383541563,0,1,-6,-8,-5,-4,1,-1
51383541563,-2,-2,0,-7,-2,-2,-1,-1
51383543164,0,-1,-1,1,-2,-2,0,-1
51383543164,0,-3,-3,3,4,-1,-2,-3
51383563643,1,1,5,-1,-8,-3,-1,0
51383563643,-1,0,-1,6,14,3,1,0
51383565209,-1,-1,-1,-11,-12,-2,0,2
51383565209,-3,-3,-7,-5,-3,-3,-3,-2
51383577362,1,0,-4,-3,-11,-6,-2,-2
51383577362,-1,-4,-1,0,-11,-7,-1,-2
51383593730,-1,-1,0,5,5,0,-2,-1
51383593730,-1,0,2,6,10,8,4,0
51383600475,0,0,-3,-2,5,6,1,2
51383600475,0,0,-3,-7,-8,-4,-4,-3
51383614914,-2,-2,0,3,1,-3,-1,-3
51383614914,0,-2,0,-1,-2,-1,-1,-2
51383623651,-1,-1,-1,-3,2,3,1,-1
51383623651,1,1,10,10,8,3,1,4
51383625270,-2,-3,-7,-14,-12,-7,-4,-2
51383625270,0,-2,1,10,6,3,-2,-3
51383637281,-1,-2,-2,-2,-6,-3,-2,-2
51383637281,-1,0,-4,-2,4,0,0,-1
51383646232,1,-1,1,-5,-10,-3,-1,0
51383646232,0,2,2,-1,-4,-3,1,0
51383668581,-3,-5,-8,-5,2,0,-1,-1
51383668581,-1,0,-3,2,-1,0,0,-2
51383670233,-2,1,3,5,7,4,-1,-1
51383670233,-1,0,-2,-8,-13,-5,0,-1
51383683827,-1,-1,3,4,-1,-4,-2,-1
51383683827,-1,-1,-4,-4,-1,-3,0,2
51383685291,0,-2,3,5,8,1,0,1
51383685291,-1,0,-3,-9,1,3,0,-2
51383697236,0,1,-1,2,-3,-3,0,1
51383697236,1,-1,1,5,13,6,3,-2
51383706236,1,0,-4,-2,-6,-3,-2,0
51383706236,-3,-3,-4,-10,-12,-12,-7,-4
51383720575,0,-4,0,-3,-2,-3,-3,-3
51383720575,0,3,0,-6,-7,2,0,0
51383727273,0,2,4,16,9,0,1,0
51383727273,1,1,-2,-5,1,4,2,1
51383743598,-2,-3,2,7,7,-1,0,-2
51383743598,-4,-1,-4,-12,-8,-2,-3,-2
51383745211,0,1,-2,-6,-4,-1,-1,-3
51383745211,-1,-3,1,0,1,-2,-1,0
51383757305,0,-2,1,10,13,4,1,0
51383757305,1,-2,-1,-10,-13,-3,0,0
51383766232,-1,-2,-3,-1,-6,-4,-2,-3
51383766232,0,-1,-1,0,2,0,-2,0
51383780626,-2,0,-1,4,5,4,0,-1
51383780626,0,-3,-3,-3,-6,-8,-1,0
51383805479,0,-2,-4,-3,-1,1,-1,0
51383805479,-2,-2,0,1,-2,2,1,-3
51383806400,-1,-4,-3,0,-5,-7,-5,-1
51383806400,-2,3,-3,5,6,2,0,-1
51383808067,2,0,4,-6,-1,4,0,1
51383808067,-3,-8,-3,-11,-11,-7,-3,1
51383826170,-2,4,-3,-8,-8,-1,-2,-5
51383826170,-3,1,-3,0,-2,-3,-2,-2
51383827637,1,0,1,4,2,1,-1,-1
51383827637,-1,-2,0,5,8,3,5,1
51383840432,1,-1,-4,-3,-1,1,-2,2
51383840432,-1,-7,1,2,9,3,-1,-1
51383847249,-3,1,-2,-2,-7,-3,-4,1
51383847249,-1,-3,-2,0,-3,-5,-2,-2
51383871277,-5,-7,0,-2,-4,-3,-3,-2
51383871277,0,2,0,4,6,6,1,-2
51383872917,1,2,-1,-6,1,0,1,2
51383872917,-2,0,1,2,-7,-8,-6,-4
51383893561,-3,-3,0,3,5,1,1,-3
51383893561,0,14,-2,-2,5,3,0,2
51383895181,2,-16,-2,-4,-2,3,2,1
51383895181,-2,4,-1,0,-6,-4,-2,-2
51383900381,0,0,0,5,8,4,2,0
51383900381,-1,-1,1,-6,-4,-3,0,1
51383907201,-3,-3,-6,16,14,1,-2,-3
51383907201,-1,-3,-5,-20,-16,-5,-4,-1
51383923602,-3,-2,-4,2,-8,-5,-1,-3
51383923602,-1,-1,7,-1,5,2,1,-1
51383925184,-4,2,2,0,-11,-7,-2,-2
51383925184,2,-1,-9,-4,26,10,1,2
51383946134,1,8,14,5,-20,-8,-1,1
51383946134,0,-8,-7,-14,-51,-13,-5,-3
51383947756,-3,1,0,-6,-5,-4,-2,-4
51383947756,-3,0,-1,7,6,3,1,-2
51383968605,2,1,-11,-3,10,3,2,0
51383968605,-1,2,3,6,12,3,0,-1
51383970341,-4,-12,-4,0,4,-1,1,0
51383970341,1,4,-1,41,25,9,2,1
51383983812,1,-2,0,-49,21,3,0,3
51383983812,-2,-1,8,4,-71,-27,-10,-6
51383985271,-4,0,-4,-13,-10,-3,-2,-4
51383985271,2,6,1,-6,-11,-3,-2,-4
51384007013,-2,-2,1,20,24,8,2,-1
51384007013,0,-7,-19,-5,27,5,3,1
51384009634,1,3,3,-12,-15,-3,-2,0
51384009634,1,0,4,14,35,9,0,0
51384019885,-9,-15,-6,-19,-49,-18,-6,-3
51384019885,3,9,5,8,3,1,1,0
51384028789,6,18,-5,2,2,1,0,-1
51384028789,1,9,32,31,19,6,2,0
51384043616,0,-17,-37,-38,-19,-3,0,1
51384043616,-5,-4,0,18,1,1,-2,-1
51384045226,-3,-10,-25,-22,3,3,2,0
51384045226,1,12,7,1,-9,-3,0,0
51384073621,2,4,22,3,-1,0,-3,0
51384073621,-2,-15,-9,-13,11,2,-1,-1
51384075218,1,8,0,9,5,0,-2,-1
51384075218,-4,-7,1,-24,-21,-9,-4,-4
51384096129,2,17,16,43,-2,2,2,0
51384096129,1,3,15,-1,16,4,4,-1
51384097737,-3,-5,12,11,3,-2,-6,-10
51384097737,2,-3,-16,-17,-16,-5,6,27
51384103554,6,-1,-13,-12,4,0,-4,5
51384103554,-18,0,6,22,9,3,9,-25
51384105169,13,-11,-49,-38,2,-1,-11,35
51384105169,-14,-1,24,9,-14,-5,2,-17
51384126303,13,-2,-71,-29,-2,1,-1,-3
51384126303,10,15,78,47,10,3,6,28
51384127859,-6,-26,-45,-36,-3,3,0,-22
51384127859,-8,0,11,15,0,0,0,-8
51384139859,10,11,-29,-26,4,2,-5,10
51384139859,-8,17,52,34,15,3,-6,-25
51384148761,-3,-17,-24,-46,-21,-7,1,14
51384148761,8,-1,-19,16,-9,-2,-1,11
51384171223,-13,-3,28,9,0,-2,1,-8
51384171223,-20,-11,-48,-22,-5,-1,-6,-25
51384172807,12,18,12,17,13,6,3,10
51384172807,7,5,31,-19,-15,-10,-8,-4
51384186289,-4,0,10,10,-4,-3,-3,2
51384186289,-5,-5,-24,0,3,-2,-9,-21
51384187808,-2,5,1,4,2,2,8,27
51384187808,-11,-18,-18,-27,-1,4,3,-10
51384199736,16,6,60,74,12,0,3,10
51384199736,13,-10,-21,-43,-2,-1,-3,17
51384208718,-20,-12,-19,12,1,4,7,-21
51384208718,18,17,36,0,2,-1,-5,2
51384223669,-12,-1,70,48,2,-5,-4,-23
51384223669,-1,3,-72,-87,-10,3,1,3
51384225303,12,-1,63,69,-1,-6,0,30
51384225303,-3,-12,-45,-28,4,1,-3,0
51384246167,-7,-5,-4,-15,-11,0,-1,-7
51384246167,8,-3,30,19,-3,-4,0,11
51384247784,-10,2,-18,-9,-3,-3,-4,-24
51384247784,-4,-18,-32,-16,-7,2,-1,-3
51384259764,-10,-5,-23,-11,6,3,14,-6
51384259764,21,-8,-2,-5,1,-6,-20,27
51384276259,-10,10,26,13,2,3,6,-5
51384276259,9,-5,-21,-1,-3,-8,-8,-6
51384290207,-4,0,-14,-27,-7,3,8,7
51384290207,-2,5,23,19,1,0,3,5
51384298783,-13,3,35,11,-1,-3,-5,-22
51384298783,6,-1,20,23,7,-1,-1,-8
51384306180,4,14,-49,-28,-3,2,4,-5
51384306180,-11,5,4,5,4,-2,-12,-9
51384307700,2,-23,2,7,-3,-4,-2,1
51384307700,-8,-2,-5,-15,-19,-3,0,-7
51384319773,-1,-5,-24,-6,1,-1,-4,2
51384319773,1,0,-11,-3,-7,-2,1,0
51384328758,4,9,-21,9,6,1,-1,-9
51384328758,-6,1,24,-6,0,-1,-3,-13
51384351171,1,-9,3,8,3,1,-4,27
51384351171,-2,-5,-6,10,2,0,9,8
51384352758,0,0,-6,-16,-3,-5,-9,-17
51384352758,-3,-4,-41,-17,0,-1,4,0
51384373603,-5,-5,20,14,-4,0,-2,-8
51384373603,-1,11,7,-10,2,2,-6,-17
51384375208,16,-9,-11,-9,-2,0,7,46
51384375208,0,10,29,16,-1,0,-1,6
51384379970,-6,-3,9,-8,-4,-5,-8,-15
51384379970,22,-8,-11,-6,3,0,4,13
51384388761,-13,-1,1,-2,-7,-2,-5,-46
51384388761,-6,0,-10,-18,0,2,1,13
51384402707,-1,-17,-9,4,9,1,2,6
51384402707,-4,12,2,-18,-36,-8,1,-3
51384411293,0,-6,-14,9,2,-1,-5,-10
51384411293,2,-9,8,11,1,-1,-1,-1
51384426288,-2,9,-24,-25,-3,-2,-2,-5
51384426288,-5,-15,8,20,1,-2,2,-2
51384427792,-2,9,9,-5,-1,-4,-1,1
51384427792,-4,15,-4,2,1,0,-1,1
51384448701,3,1,8,9,3,1,-3,0
51384448701,-2,-6,-15,-6,4,1,3,7
51384450267,-6,12,37,6,-3,-1,-4,-14
51384450267,-1,-24,-71,-10,6,4,1,4
51384463616,3,9,35,0,-5,-6,-4,-7
51384463616,-7,7,-27,-15,0,1,-1,-9
51384465278,-4,-3,41,18,1,-4,0,28
51384465278,-7,15,5,4,4,3,-2,-8
51384486268,10,-4,6,18,2,2,1,9
51384486268,-3,-11,-27,-18,1,-1,1,-5
51384487708,-6,3,-23,-20,-6,-1,0,-5
51384487708,1,4,1,-4,3,-4,-11,-15
51384499809,-4,2,34,4,-8,-5,-2,4
51384499809,-7,12,13,21,8,0,0,-6
51384508798,2,-4,1,-3,3,2,1,-3
51384508798,5,-13,-24,-11,-12,-1,5,10
51384523597,0,0,-9,-4,5,0,-4,-9
51384523597,-2,-12,2,2,-4,-2,-1,1
51384525331,1,10,-4,-12,-4,-1,-1,-1
51384525331,1,20,27,23,5,-2,1,5
51384546337,-5,-15,-18,5,9,1,-2,-6
51384546337,1,-4,8,-5,0,2,1,3
51384547740,3,-4,-9,2,-1,-1,-2,4
51384547740,-7,-10,-15,-14,5,-1,-1,-7
51384559779,2,6,7,-5,-13,0,3,7
51384559779,3,5,-9,-2,0,-3,-2,-1
51384576290,0,3,19,-22,-2,-1,-1,-14
51384576290,-2,-4,-15,35,0,0,-2,2
51384583612,-4,-14,-14,-4,2,-4,-6,-11
51384583612,-5,-17,-16,-6,-1,-2,3,10
51384585303,-3,8,11,-2,5,0,1,2
51384585303,1,-4,17,-2,2,0,-3,-18
51384606146,-20,7,3,3,-2,2,1,3
51384606146,35,-9,-4,-2,-1,-2,-7,11
51384607734,3,-6,-19,4,-1,-5,-1,0
51384607734,-2,-8,14,-16,-8,2,1,1
51384628731,-3,3,-5,13,1,-3,-1,-6
51384628731,-10,7,13,8,8,4,1,-5
51384630343,0,-6,-19,-8,-2,2,-4,4
51384630343,4,3,13,7,-6,-3,0,7
51384651162,4,1,-12,-21,-11,-6,-3,0
51384651162,-7,-1,0,6,0,-1,2,-5
51384652752,3,0,-4,9,3,-1,-4,-2
51384652752,-6,3,9,-2,3,-2,1,-5
51384666117,3,-7,-7,-11,-2,4,5,14
51384666117,-5,-3,5,-11,-5,-3,-2,-5
51384667751,0,2,-3,28,-2,0,-2,-4
51384667751,2,-3,-2,-16,-9,-3,-3,7
51384679825,3,3,-13,-3,1,-2,-4,-2
51384679825,-4,-2,9,1,-6,-2,-1,-1
51384688833,-9,-6,-3,-7,2,2,1,1
51384688833,2,-12,-4,-1,-2,0,0,3
51384703628,-1,-1,-7,12,-1,-2,-4,-7
51384703628,-3,1,0,-9,1,1,1,16
51384705203,-4,-4,2,-1,-3,-3,-3,-4
51384705203,1,-4,12,4,-7,-4,-2,1
51384726127,0,10,-4,-8,2,-1,-2,-2
51384726127,-4,-11,-9,-2,4,1,0,-6
51384727791,1,6,7,9,-12,-5,-2,0
51384727791,1,2,3,-2,4,0,0,4
51384739980,-3,-5,2,-5,-4,-1,-3,-7
51384739980,-2,10,6,-6,3,0,-3,-6
51384756244,-5,-10,0,9,1,1,1,-1
51384756244,3,7,-10,-1,1,2,0,-1
51384763611,11,4,5,-3,1,-1,-2,0
51384763611,2,9,-19,7,-3,-3,-5,-3
51384765206,-6,-4,-7,-14,5,-1,0,1
51384765206,-3,-10,0,-15,-19,-3,-2,0
51384786245,3,2,3,18,2,2,2,1
51384786245,2,-2,9,-3,-3,0,-4,0
51384787807,0,8,0,-8,2,1,1,-1
51384787807,-7,-6,-20,6,6,0,-1,-1
51384808642,5,7,0,-17,-3,-3,-1,-3
51384808642,-7,3,28,26,-1,-2,-2,-19
51384810210,4,-2,-5,-5,-1,-1,4,38
51384810210,1,5,16,6,2,1,-1,-1
51384831346,-7,-15,-5,-9,-5,-2,-1,-1
51384831346,-7,-11,-13,-20,-2,-1,0,-5
51384832825,2,7,16,33,4,-3,-2,-11
51384832825,4,5,8,-10,-2,-1,0,0
51384853700,-4,-5,-18,-17,-4,-1,1,-1
51384853700,-2,8,-12,-11,-1,1,-8,9
51384855251,-20,-34,10,7,-2,-1,1,-27
51384855251,29,-9,-30,-5,-1,-2,-1,27
51384868617,7,19,33,7,4,4,0,-5
51384868617,-2,-21,-18,-2,4,-1,3,2
51384870225,11,20,-8,-18,-7,-2,-5,-5
51384870225,-16,-7,16,7,-4,-4,-7,-30
51384883055,-7,-8,-8,14,-3,-2,-1,1
51384883055,7,-1,7,8,-1,-3,2,14
51384889994,-2,-4,2,-14,0,3,0,-1
51384889994,-9,5,-4,2,8,0,1,-10
51384906170,3,3,5,-4,-1,-2,-2,0
51384906170,-11,-6,16,7,2,1,-1,-4
51384907781,6,2,-11,-5,0,-1,1,-1
51384907781,-41,-3,-10,-7,-1,-1,-2,-15
51384928618,46,1,2,8,-1,-2,1,16
51384928618,6,1,-3,-12,0,0,0,-5
51384930230,-1,-1,-4,12,0,-4,-2,-1
51384930230,-2,-3,10,-22,5,1,-1,3
51384943116,-7,3,2,23,-2,0,-1,-4
51384943116,1,1,-7,-15,-9,-1,0,-6
51384949814,13,5,2,12,4,1,2,9
51384949814,-6,4,9,-16,-18,-7,-3,-4
51384966139,-19,-17,-13,12,9,4,-1,-7
51384966139,2,4,30,12,-5,-5,2,5
51384967708,3,10,-22,-21,-1,3,-5,-6
51384967708,10,3,1,16,8,3,1,10
51384988742,-13,-6,12,-22,-2,-4,-4,-4
51384988742,1,2,-21,-9,-4,0,0,-3
51384990278,-15,-9,18,20,7,3,2,-1
51384990278,10,2,10,15,8,1,-1,3
51385003100,2,1,-13,-25,-20,-7,-7,0
51385003100,-6,-6,-15,-4,-1,-1,-1,-4
51385009777,1,2,4,-7,2,-1,-2,-2
51385009777,6,2,11,13,-2,-1,4,7
51385033629,-17,-11,-23,-11,-2,-1,-2,-7
51385033629,-1,0,-2,1,4,2,1,-1
51385035245,3,-1,-9,-3,-1,0,1,1
51385035245,2,1,0,12,18,0,1,2
51385056157,-6,-3,-8,19,3,0,0,-1
51385056157,0,0,7,-8,1,0,-1,-3
51385057791,2,3,1,-2,-11,-5,-3,-1
51385057791,-1,-4,-14,-6,-4,-1,-4,-3
51385063012,-4,-6,8,6,10,1,0,-2
51385063012,4,8,11,8,5,-1,1,3
51385069754,-2,-3,-1,-13,6,4,1,-3
51385069754,1,-1,-8,11,-7,-3,-1,3
51385086343,-4,-2,10,4,1,-2,-1,-1
51385086343,1,-7,-23,-21,-8,-2,0,0
51385087968,-4,0,5,7,-9,-2,-3,-3
51385087968,3,5,1,-10,-7,-3,-1,0
51385108659,0,1,7,-8,-2,-1,0,1
51385108659,-3,-3,-5,26,6,2,-1,-3
51385110253,1,0,-5,-24,4,1,1,1
51385110253,-7,-2,1,-7,-12,-3,-2,-1
51385131228,1,2,5,11,-7,0,-3,-2
51385131228,-2,-2,-12,-37,-16,-8,-2,-1
51385132777,-1,-4,16,30,7,0,-1,0
51385132777,4,-4,-21,-16,10,7,3,0
51385146337,-3,9,23,-6,-4,-3,1,3
51385146337,-1,5,-9,14,-18,-5,-4,-4
51385147781,2,-2,-2,-13,-10,-3,-2,-2
51385147781,-1,0,-1,1,-1,0,-2,0
51385168624,-2,-2,-8,-5,0,-2,-5,0
51385168624,-4,-10,-14,3,7,4,-1,-4
51385170218,3,-3,9,0,-10,-5,2,-1
51385170218,2,4,-8,-1,0,-1,0,-2
51385183020,-2,1,-7,-13,-8,-1,0,-3
51385183020,-1,3,12,18,6,2,1,0
51385190042,-2,-4,-16,-9,2,0,-2,-2
51385190042,-4,-13,-4,21,15,5,-5,-4
51385206236,5,15,18,-28,-4,0,2,4
51385206236,-2,-1,13,40,-7,-6,-2,0
51385207786,-4,-4,-2,-14,-8,-5,-4,-2
51385207786,1,1,-12,-16,-11,-1,1,2
51385228630,-3,-4,-7,6,6,2,0,-3
51385228630,0,-2,-4,-5,11,-3,1,1
51385230248,-2,3,8,-9,-3,0,-2,-1
51385230248,-2,-2,7,24,10,2,-1,0
51385242497,0,-7,-7,-11,-4,-2,1,0
51385242497,1,2,-1,-19,-3,-6,-4,-3
51385258836,-3,-5,-18,13,-2,0,1,-1
51385258836,1,9,18,-11,-5,0,0,1
51385266141,-3,-4,5,26,17,5,1,-1
51385266141,-3,-1,6,-13,-11,-1,-3,-1
51385267769,1,-4,-19,6,4,-2,1,1
51385267769,-1,-2,-3,-10,3,-4,-2,0
51385288834,2,-8,-10,-9,-20,-3,-3,-2
51385288834,-4,-1,8,27,8,3,3,2
51385290260,-1,5,-6,-8,5,0,-4,-1
51385290260,-3,-3,3,-16,-14,-5,-7,-10
51385311136,-3,-4,-5,-6,2,-2,-4,-9
51385311136,8,0,-1,-8,0,3,23,25
51385312744,-1,-2,-3,7,-1,-2,-2,5
51385312744,0,-5,-1,6,-8,-6,-2,3
51385333678,6,10,-6,-19,-4,-1,3,2
51385333678,-10,-4,0,-13,6,2,-12,-22
51385335279,-4,1,14,20,2,-4,0,1
51385335279,1,0,-2,-7,-2,1,4,4
51385349412,1,3,1,7,-2,-2,-2,4
51385349412,1,2,5,13,2,-2,-4,-4
51385351073,-4,-13,-13,-26,-10,3,-2,-5
51385351073,-3,2,4,6,-1,-2,-4,-6
51385362326,-3,-7,-15,1,-8,-3,-2,0
51385362326,-2,11,43,36,13,1,-3,-2
51385371274,-1,-1,-44,-52,-22,-8,0,-2
51385371274,1,-6,-8,7,-2,-1,-3,0
51385386157,-4,-1,0,7,0,-1,-3,0
51385386157,-10,-7,-11,-9,1,-6,-20,-38
51385387832,9,6,14,1,0,4,5,2
51385387832,5,6,10,-7,-10,1,19,33
51385408844,4,-14,-13,-1,6,0,6,18
51385408844,-2,-6,4,-6,0,2,-8,3
51385410262,2,6,-7,14,10,1,-8,-12
51385410262,-6,-7,1,-25,-21,-7,-6,-14
51385422370,-3,-3,1,13,5,1,2,-6
51385422370,-1,12,-1,-9,-3,-1,-3,-3
51385431249,-5,-34,-17,25,5,0,-2,2
51385431249,-2,7,11,21,22,4,2,-4
51385446314,-3,-1,6,-22,3,0,-2,-3
51385446314,1,-1,-7,-14,-33,-9,-3,0
51385447800,2,13,5,-13,-4,2,0,-1
51385447800,1,-3,-16,-9,-4,-2,-3,-3
51385468756,-6,-3,8,25,11,-1,-3,-9
51385468756,3,-2,-14,4,9,1,6,9
51385470350,0,6,26,-3,-5,-2,0,0
51385470350,-1,-4,-9,8,1,-2,-5,5
51385482282,2,12,6,9,3,3,1,-4
51385482282,2,-8,-10,-18,-8,3,6,6
51385491425,-4,-1,11,3,-1,-3,-3,-6
51385491425,1,-1,-18,-8,2,-1,-4,-6
51385506212,3,1,-8,3,0,-1,2,8
51385506212,-1,6,4,1,-6,-1,4,7
51385507967,-3,-6,-5,-11,14,0,-1,-1
51385507967,-2,1,-17,-6,-25,-7,-7,-11
51385536183,-1,-2,8,-11,-7,-2,0,-3
51385536183,0,-5,2,-2,-1,-2,-4,-2
51385537860,-2,5,-1,15,2,0,-3,-2
51385537860,-4,5,23,-2,3,-5,-1,-6
51385542403,0,-1,-1,7,2,4,4,3
51385542403,0,-7,-17,-8,4,5,4,4
51385557346,1,4,0,-8,-7,-1,0,1
51385557346,0,-5,6,7,5,2,-1,0
51385566182,-3,-2,5,-5,-3,-3,-3,-7
51385566182,1,1,3,13,5,-1,-2,0
51385567773,-2,-4,-12,-19,-12,-3,4,3
51385567773,-3,-3,3,4,-2,-1,-2,-5
51385588743,0,2,-2,0,4,0,-3,-5
51385588743,-2,-5,3,-2,-2,1,2,0
51385590300,7,9,14,17,7,3,4,2
51385590300,-6,-11,-27,-22,-14,-2,-2,-2
51385611321,-2,4,-1,-14,-6,-1,-1,1
51385611321,-9,-9,-31,-8,-1,-7,5,-11
51385612752,0,-1,12,6,-1,-3,-8,9
51385612752,9,11,18,17,7,5,-11,-16
51385633672,-22,-10,2,-7,-9,-4,-4,-25
51385633672,26,6,12,6,-2,7,13,41
51385635273,-5,2,-1,4,8,0,5,6
51385635273,-1,-5,-10,-6,3,-3,0,-3
51385648885,-4,-6,-30,-5,-11,-4,0,-4
51385648885,-1,9,56,6,4,-3,-11,-12
51385650325,2,2,-4,1,7,3,3,-6
51385650325,1,2,22,20,5,1,4,11
51385662545,4,1,-7,-5,1,-3,-4,-1
51385662545,-7,-8,-21,-14,-5,-2,-1,-4
51385671279,3,0,-4,-2,-3,2,-2,3
51385671279,-5,-2,0,-15,3,3,-3,-6
51385685480,0,-1,9,-1,-13,-8,1,6
51385685480,-3,3,0,8,-1,-3,-6,-8
51385692514,-2,-9,0,0,-6,-7,0,-5
51385692514,-2,-4,-16,-4,2,-1,4,-6
51385708807,9,4,15,13,9,1,-1,22
51385708807,-1,-4,-23,-12,3,4,-2,-2
51385710388,-7,1,8,-7,-1,2,-1,1
51385710388,1,0,-2,17,6,0,5,10
51385737760,-6,-5,-1,10,-22,-5,-9,-18
51385737760,11,3,-13,-8,-4,-1,-3,-16
51385747667,-11,0,-3,0,-5,-6,6,45
51385747667,28,1,3,-15,11,7,3,11
51385748684,2,3,-4,-14,5,4,1,7
51385748684,-4,-2,2,15,-2,-4,-3,-3
51385760014,-5,-4,2,-11,-15,-8,-7,-24
51385760014,-5,2,-10,-4,-6,-1,5,4
51385768653,1,-1,-9,13,12,6,-3,0
51385768653,-4,-3,18,-2,8,5,0,1
51385770259,2,1,6,-14,-12,-11,-5,-8
51385770259,-8,-10,-6,-15,-4,-4,-3,-5
51385791200,5,-1,2,9,-11,-3,2,-1
51385791200,-9,-2,-3,20,12,2,1,-3
51385792768,7,9,6,7,0,4,-1,-2
51385792768,-2,0,-6,-7,-2,1,0,2
51385813799,-3,6,-9,-12,-2,1,-1,-3
51385813799,-1,-14,0,-20,-14,-8,-1,2
51385815275,-1,-1,-3,22,9,2,0,-9
51385815275,-4,-2,4,8,9,1,0,-2
51385836140,1,1,-3,-1,-1,-1,2,3
51385836140,-4,-5,-5,-15,-10,-2,1,0
51385837760,1,2,-16,-11,2,2,-3,-8
51385837760,-8,-3,18,26,-2,-5,-4,-3
51385851347,-3,-8,-12,-31,-2,6,-1,2
51385851347,-2,1,14,13,3,-5,0,1
51385852805,7,19,-6,-27,-28,-5,1,-7
51385852805,6,0,-13,-5,6,4,-2,3
51385865777,3,0,0,2,-3,-7,-10,-1
51385865777,-6,-8,-14,8,8,1,6,0
51385872334,-8,-17,-2,14,15,0,-7,-5
51385872334,-3,7,23,-15,-16,-5,2,-3
51385888640,0,1,5,16,12,2,4,-2
51385888640,4,2,2,2,-7,0,-2,2
51385890270,2,-2,-11,8,6,0,-1,-1
51385890270,-5,-7,-13,12,1,-4,-1,-3
51385911260,-2,7,40,-29,-10,-1,0,-2
51385911260,2,5,-24,-21,-9,0,0,1
51385912838,1,-1,19,24,-1,-1,-2,-4
